time(s),F1,F2,F3,F4,F5,F6,F7,F8,F9,F10,Temp,Humid
10.0,0.625,0.125,0.0,4.5,-0.75,-1.5,-0.25,4.875,3.5,4.75,0.0399999999999991,-0.1099999999999994
10.1,0.625,0.0,-0.125,4.5,-0.75,-1.75,-0.125,4.875,2.75,3.625,0.0399999999999991,-0.1099999999999994
10.2,0.625,0.125,-0.125,4.5,-0.75,-1.75,-0.125,4.875,2.125,2.875,0.0399999999999991,-0.1300000000000025
10.3,0.625,0.125,-0.25,4.5,-0.875,-1.875,-0.125,4.875,2.0,2.5,0.0499999999999971,-0.1199999999999974
10.4,0.5,0.125,-0.25,4.375,-1.0,-2.0,-0.25,4.875,1.875,2.375,0.0300000000000011,-0.1000000000000014
10.5,0.5,0.125,-0.25,4.375,-1.0,-1.875,-0.125,4.875,2.0,2.375,0.0399999999999991,-0.1099999999999994
10.6,0.625,0.125,-0.25,4.375,-1.0,-2.0,-0.125,4.875,2.125,2.5,0.0499999999999971,-0.0700000000000002
10.7,0.5,0.125,-0.25,4.375,-1.0,-2.0,-0.125,4.875,2.0,2.875,0.0399999999999991,-0.1300000000000025
10.8,0.625,0.125,-0.25,4.375,-1.0,-2.0,-0.125,4.875,2.0,3.875,0.0399999999999991,-0.1300000000000025
10.9,0.75,0.125,-0.25,4.375,-0.75,-1.75,-0.125,5.0,2.125,6.125,0.0499999999999971,-0.1400000000000005
11.0,0.875,0.0,-0.25,4.625,-0.5,-1.375,0.125,5.0,2.125,10.25,0.0399999999999991,-0.1000000000000014
11.1,1.25,0.125,-0.25,5.0,0.125,-0.625,0.0,5.125,2.375,17.75,0.0499999999999971,-0.1099999999999994
11.2,1.625,0.125,-0.25,5.875,1.375,0.5,0.125,5.5,2.75,29.25,0.0399999999999991,-0.1400000000000005
11.3,2.375,0.125,-0.25,7.375,3.25,2.375,0.375,6.25,3.5,44.5,0.0499999999999971,-0.0799999999999983
11.4,3.375,0.125,-0.25,9.75,6.25,4.625,0.5,7.875,5.0,64.375,0.0499999999999971,-0.0499999999999971
11.5,4.75,0.125,-0.25,13.375,10.0,7.875,0.75,10.75,7.25,88.875,0.0,-0.1599999999999966
11.6,6.25,0.125,-0.25,18.125,14.625,11.875,0.875,15.25,10.5,118.25,0.0399999999999991,-0.1099999999999994
11.7,8.25,0.125,-0.125,24.75,20.0,16.75,1.0,22.125,15.125,153.125,0.0499999999999971,-0.1099999999999994
11.8,10.625,0.125,-0.125,33.125,26.25,22.625,1.5,31.875,21.125,194.125,0.0399999999999991,-0.0499999999999971
11.9,13.375,0.125,-0.125,43.5,33.5,29.0,1.75,44.875,28.75,241.125,0.0499999999999971,-0.0700000000000002
12.0,16.5,0.125,-0.125,56.25,41.75,36.125,2.0,61.5,37.75,295.25,0.0399999999999991,-0.1099999999999994
12.1,20.25,0.375,-0.25,71.5,50.75,43.875,2.25,82.25,48.625,355.5,0.0799999999999983,-0.0499999999999971
12.2,24.25,0.375,-0.25,89.0,60.25,52.25,2.625,106.875,61.0,420.75,0.0499999999999971,-0.009999999999998
12.3,28.625,0.5,-0.25,109.25,70.375,61.125,2.875,136.375,75.0,492.125,0.0399999999999991,-0.0399999999999991
12.4,33.625,0.75,-0.25,131.875,81.25,70.5,3.25,170.125,90.375,567.625,0.0700000000000002,0.0700000000000002
12.5,38.75,0.875,-0.25,156.625,92.375,80.25,3.5,208.0,106.5,643.875,0.0499999999999971,0.0499999999999971
12.6,44.5,1.125,-0.25,183.875,104.375,90.5,3.875,250.625,124.125,721.25,0.0499999999999971,0.0900000000000034
12.7,50.625,1.375,-0.25,212.875,116.625,100.875,4.0,297.125,142.25,796.375,0.0399999999999991,0.0900000000000034
12.8,57.125,1.625,-0.25,244.125,129.625,111.625,4.5,348.125,161.25,869.875,0.0700000000000002,0.1700000000000017
12.9,63.875,1.875,-0.25,277.0,143.0,122.625,4.75,403.125,181.0,940.375,0.0700000000000002,0.240000000000002
13.0,71.125,2.125,-0.25,310.875,156.75,133.75,5.0,461.0,200.875,1007.125,0.0499999999999971,0.2300000000000039
13.1,78.75,2.5,-0.375,346.25,171.125,145.125,5.25,522.25,221.375,1071.125,0.0399999999999991,0.240000000000002
13.2,86.75,2.875,-0.25,382.375,185.75,156.625,5.625,586.25,242.125,1131.5,0.0499999999999971,0.2899999999999991
13.3,94.875,3.25,-0.25,418.625,200.75,168.0,5.875,651.5,262.625,1187.375,0.0499999999999971,0.3800000000000025
13.4,103.5,3.625,-0.25,455.5,216.0,179.625,6.25,719.0,283.375,1239.75,0.0700000000000002,0.4200000000000017
13.5,112.375,4.0,-0.25,492.25,231.625,191.125,6.5,787.375,303.75,1288.125,0.0700000000000002,0.4699999999999988
13.6,121.5,4.5,-0.25,528.25,247.25,202.5,6.625,855.25,323.75,1332.375,0.0499999999999971,0.5200000000000031
13.7,131.0,5.0,-0.25,564.125,263.0,214.0,7.0,923.375,343.5,1374.25,0.0700000000000002,0.5399999999999991
13.8,140.75,5.375,-0.125,599.25,279.125,225.25,7.25,990.25,363.0,1413.125,0.0700000000000002,0.6000000000000014
13.9,150.625,5.875,-0.25,632.875,294.875,236.5,7.375,1055.0,382.0,1449.25,0.0499999999999971,0.6600000000000037
14.0,161.0,6.375,-0.125,665.875,310.75,247.5,7.875,1118.25,400.75,1483.25,0.0700000000000002,0.7000000000000028
14.1,171.5,6.875,-0.125,697.625,326.625,258.375,8.125,1179.25,419.25,1515.0,0.0700000000000002,0.8200000000000003
14.2,182.0,7.375,-0.125,727.75,342.25,268.875,8.375,1237.0,437.125,1544.5,0.0499999999999971,0.8200000000000003
14.3,193.0,7.875,-0.125,756.75,358.0,279.25,8.625,1292.375,454.75,1572.625,0.0700000000000002,0.8500000000000014
14.4,204.125,8.5,-0.125,784.375,373.375,289.5,8.875,1344.625,472.0,1599.0,0.0700000000000002,0.980000000000004
14.5,215.25,9.0,-0.125,810.375,388.375,299.125,9.0,1393.375,488.5,1623.25,0.0700000000000002,0.9500000000000028
14.6,226.75,9.625,-0.125,835.125,403.25,308.875,9.25,1439.375,504.875,1646.125,0.0700000000000002,1.0600000000000025
14.7,238.375,10.125,0.0,858.625,417.75,318.125,9.375,1482.25,520.625,1667.5,0.0799999999999983,1.1199999999999974
14.8,250.0,10.875,0.0,880.5,431.75,327.0,9.625,1521.625,535.75,1687.5,0.0799999999999983,1.1899999999999975
14.9,262.0,11.5,0.0,901.375,445.75,335.75,9.875,1558.625,550.5,1706.75,0.0700000000000002,1.2000000000000028
15.0,273.875,12.125,0.0,920.875,459.125,344.125,10.0,1592.875,564.875,1725.25,0.0799999999999983,1.2199999999999989
15.1,285.875,12.75,0.0,939.0,472.125,352.25,10.25,1624.25,578.625,1742.375,0.0700000000000002,1.3400000000000034
15.2,298.125,13.5,0.125,956.25,484.875,360.125,10.375,1653.5,592.0,1758.875,0.0700000000000002,1.3400000000000034
15.3,310.375,14.125,0.125,972.5,497.25,367.625,10.5,1680.625,605.125,1774.25,0.0700000000000002,1.4299999999999995
15.4,322.625,14.75,0.125,987.5,509.0,374.875,10.875,1705.375,617.5,1788.75,0.0700000000000002,1.480000000000004
15.5,335.0,15.5,0.125,1001.75,520.5,381.75,10.875,1728.625,629.5,1802.375,0.0499999999999971,1.509999999999998
15.6,347.5,16.25,0.25,1015.0,531.5,388.5,11.0,1750.0,641.25,1815.5,0.0799999999999983,1.509999999999998
15.7,360.0,16.875,0.125,1027.375,542.25,394.875,11.25,1769.5,652.25,1827.75,0.0799999999999983,1.6000000000000014
15.8,372.375,17.5,0.25,1039.125,552.5,400.875,11.375,1787.875,663.125,1839.625,0.0700000000000002,1.6300000000000026
15.9,384.875,18.25,0.25,1050.0,562.25,406.75,11.5,1804.625,673.5,1850.75,0.0499999999999971,1.6499999999999986
16.0,397.5,19.0,0.25,1060.25,571.75,412.25,11.75,1820.375,683.5,1861.375,0.0700000000000002,1.75
16.1,410.0,19.75,0.25,1070.0,581.0,417.5,12.0,1835.0,693.125,1871.25,0.0700000000000002,1.75
16.2,422.375,20.5,0.375,1078.875,589.625,422.5,11.875,1848.5,702.375,1880.625,0.0700000000000002,1.8100000000000025
16.3,434.875,21.25,0.375,1087.375,598.0,427.375,12.25,1861.25,711.25,1889.5,0.0499999999999971,1.8599999999999997
16.4,447.5,22.0,0.375,1095.375,606.125,431.875,12.375,1873.0,719.875,1898.0,0.0799999999999983,1.910000000000004
16.5,459.75,22.875,0.5,1102.75,613.75,436.125,12.375,1883.875,728.0,1906.125,0.0799999999999983,1.910000000000004
16.6,472.125,23.625,0.5,1109.75,621.0,440.25,12.5,1894.125,736.0,1913.625,0.0700000000000002,2.009999999999998
16.7,484.625,24.375,0.5,1116.25,628.0,444.125,12.625,1903.625,743.625,1920.75,0.0799999999999983,2.030000000000001
16.8,496.75,25.25,0.5,1122.375,634.625,447.75,12.875,1912.375,750.875,1927.5,0.0499999999999971,2.0900000000000034
16.9,509.0,26.0,0.625,1128.25,641.0,451.25,12.875,1920.75,757.875,1934.0,0.0700000000000002,2.0900000000000034
17.0,521.25,26.875,0.625,1133.625,647.0,454.5,13.125,1928.375,764.625,1940.125,0.0799999999999983,2.119999999999997
17.1,533.25,27.625,0.625,1138.625,652.625,457.625,13.25,1935.625,771.125,1945.875,0.0399999999999991,2.140000000000001
17.2,545.25,28.5,0.625,1143.5,658.0,460.375,13.375,1942.375,777.25,1951.375,0.0799999999999983,2.18
17.3,557.25,29.25,0.625,1147.875,663.125,463.25,13.5,1948.625,783.375,1956.625,0.0499999999999971,2.25
17.4,568.875,30.0,0.75,1152.125,667.875,465.625,13.5,1954.5,789.0,1961.625,0.0700000000000002,2.25
17.5,580.625,30.875,0.75,1156.0,672.375,468.125,13.75,1960.0,794.625,1966.375,0.0700000000000002,2.3100000000000023
17.6,592.375,31.75,0.75,1159.75,676.625,470.25,13.875,1965.125,799.875,1970.875,0.0700000000000002,2.3400000000000034
17.7,603.75,32.5,0.875,1163.125,680.625,472.375,13.875,1969.875,804.875,1975.125,0.0799999999999983,2.3500000000000014
17.8,615.125,33.375,0.875,1166.25,684.375,474.25,14.125,1974.375,809.75,1979.125,0.0700000000000002,2.3500000000000014
17.9,626.5,34.125,0.875,1169.25,687.875,476.0,14.125,1978.625,814.375,1983.0,0.0499999999999971,2.3599999999999994
18.0,637.625,35.0,0.875,1172.0,691.125,477.75,14.0,1982.5,818.875,1986.5,0.0700000000000002,2.469999999999999
18.1,648.625,35.875,1.0,1174.625,694.125,479.25,14.25,1986.25,823.125,1990.0,0.0700000000000002,2.469999999999999
18.2,659.625,36.75,1.0,1177.0,696.875,480.625,14.375,1989.625,827.25,1993.25,0.0700000000000002,2.530000000000001
18.3,670.25,37.5,1.0,1179.25,699.375,482.0,14.5,1992.875,831.25,1996.25,0.0499999999999971,2.469999999999999
18.4,681.0,38.375,1.0,1181.375,701.75,483.125,14.625,1995.875,835.125,1999.125,0.0700000000000002,2.490000000000002
18.5,691.5,39.25,1.125,1183.25,704.0,484.125,14.75,1998.625,838.75,2001.875,0.0399999999999991,2.5600000000000023
18.6,701.75,40.125,1.125,1185.0,705.875,485.125,14.875,2001.25,842.25,2004.375,0.0700000000000002,2.530000000000001
18.7,712.125,40.875,1.125,1186.625,707.75,486.0,14.875,2003.75,845.625,2006.875,0.0700000000000002,2.5900000000000034
18.8,722.25,41.875,1.25,1188.0,709.25,486.75,15.0,2006.0,848.875,2009.125,0.0799999999999983,2.6300000000000026
18.9,732.125,42.75,1.25,1189.375,710.625,487.375,15.125,2008.125,852.0,2011.375,0.0700000000000002,2.619999999999997
19.0,742.0,43.5,1.25,1190.5,711.875,487.875,15.0,2010.125,854.875,2013.5,0.0700000000000002,2.619999999999997
19.1,751.5,44.375,1.25,1191.625,713.0,488.25,15.0,2011.875,857.75,2015.5,0.0499999999999971,2.640000000000001
19.2,761.125,45.25,1.25,1192.5,713.875,488.625,15.125,2013.625,860.375,2017.25,0.0700000000000002,2.710000000000001
19.3,770.5,46.0,1.25,1193.375,714.75,489.0,15.125,2015.125,863.0,2019.0,0.0700000000000002,2.6899999999999977
19.4,779.625,46.875,1.375,1194.125,715.375,489.25,15.375,2016.625,865.5,2020.625,0.0499999999999971,2.719999999999999
19.5,788.75,47.75,1.5,1194.75,715.875,489.375,15.375,2018.0,867.875,2022.25,0.1000000000000014,2.740000000000002
19.6,797.75,48.625,1.5,1195.25,716.125,489.5,15.5,2019.25,870.125,2023.625,0.0499999999999971,2.719999999999999
19.7,806.375,49.5,1.5,1195.625,716.375,489.375,15.5,2020.375,872.25,2025.0,0.0799999999999983,2.740000000000002
19.8,815.0,50.375,1.5,1196.0,716.5,489.25,15.75,2021.25,874.375,2026.125,0.0700000000000002,2.719999999999999
19.9,823.5,51.25,1.5,1196.25,716.5,489.25,15.75,2022.375,876.25,2027.125,0.0700000000000002,2.789999999999999
20.0,831.875,52.0,1.625,1196.375,716.375,489.0,15.75,2023.125,878.125,2028.125,0.0799999999999983,2.75
20.1,840.0,52.875,1.625,1196.5,716.25,488.75,15.75,2023.875,879.875,2029.0,0.0700000000000002,2.8299999999999983
20.2,848.0,53.75,1.625,1196.375,716.0,488.375,15.875,2024.625,881.5,2029.75,0.0799999999999983,2.8200000000000003
20.3,855.875,54.625,1.75,1196.375,715.5,488.0,15.875,2025.25,883.125,2030.5,0.0799999999999983,2.789999999999999
20.4,863.625,55.5,1.75,1196.125,715.0,487.625,16.0,2025.75,884.625,2031.125,0.0700000000000002,2.8299999999999983
20.5,871.125,56.375,1.75,1196.0,714.5,487.125,16.125,2026.125,886.125,2031.625,0.0799999999999983,2.789999999999999
20.6,878.5,57.125,1.875,1195.625,713.875,486.625,16.125,2026.625,887.375,2032.125,0.0499999999999971,2.8299999999999983
20.7,885.875,57.875,1.875,1195.25,713.0,486.0,16.0,2026.875,888.625,2032.375,0.0700000000000002,2.8599999999999994
20.8,893.0,58.75,1.875,1194.75,712.125,485.375,16.25,2027.25,889.75,2032.625,0.0700000000000002,2.8400000000000034
20.9,900.0,59.625,1.875,1194.25,711.25,484.75,16.375,2027.375,891.0,2032.875,0.0399999999999991,2.8400000000000034
21.0,906.875,60.375,2.0,1193.625,710.125,484.0,16.375,2027.5,892.0,2033.125,0.0499999999999971,2.8400000000000034
21.1,913.625,61.25,2.0,1193.0,709.0,483.375,16.5,2027.75,893.0,2033.25,0.0700000000000002,2.8400000000000034
21.2,920.125,62.0,2.0,1192.25,707.75,482.5,16.625,2027.75,893.875,2033.375,0.0700000000000002,2.8800000000000026
21.3,926.5,63.0,2.125,1191.625,706.5,481.75,16.5,2027.75,894.875,2033.375,0.0499999999999971,2.8599999999999994
21.4,932.875,63.75,2.0,1190.75,705.0,480.875,16.5,2027.75,895.625,2033.375,0.0700000000000002,2.8999999999999986
21.5,939.0,64.5,2.125,1190.0,703.625,480.0,16.5,2027.625,896.375,2033.25,0.0700000000000002,2.8999999999999986
21.6,945.0,65.25,2.125,1189.0,702.125,479.125,16.625,2027.5,897.125,2033.125,0.0499999999999971,2.8599999999999994
21.7,950.875,66.125,2.25,1188.125,700.5,478.125,16.5,2027.375,897.75,2032.875,0.0700000000000002,2.8299999999999983
21.8,956.625,66.875,2.25,1187.125,698.875,477.125,16.5,2027.125,898.375,2032.625,0.0499999999999971,2.8800000000000026
21.9,962.25,67.75,2.25,1186.0,697.125,476.0,16.75,2026.875,899.0,2032.25,0.0700000000000002,2.8800000000000026
22.0,967.625,68.5,2.25,1184.875,695.375,475.0,16.5,2026.625,899.375,2032.0,0.0399999999999991,2.910000000000004
22.1,973.0,69.25,2.25,1183.875,693.5,474.0,16.625,2026.25,899.875,2031.625,0.0700000000000002,2.9200000000000017
22.2,978.25,70.125,2.25,1182.625,691.5,472.875,16.75,2025.875,900.25,2031.25,0.0399999999999991,2.8800000000000026
22.3,983.25,71.0,2.375,1181.375,689.625,471.75,16.875,2025.5,900.625,2030.75,0.0499999999999971,2.869999999999997
22.4,988.25,71.75,2.375,1180.125,687.625,470.625,16.875,2025.0,901.0,2030.25,0.0700000000000002,2.910000000000004
22.5,993.125,72.5,2.375,1178.875,685.5,469.5,16.75,2024.625,901.25,2029.625,0.0399999999999991,2.890000000000001
22.6,997.75,73.125,2.375,1177.5,683.5,468.25,16.625,2024.0,901.5,2029.125,0.0499999999999971,2.8999999999999986
22.7,1002.375,74.0,2.5,1176.125,681.375,467.0,16.75,2023.5,901.625,2028.375,0.0700000000000002,2.8599999999999994
22.8,1006.875,74.75,2.5,1174.75,679.0,465.75,16.75,2022.875,901.75,2027.75,0.0499999999999971,2.8999999999999986
22.9,1011.25,75.5,2.5,1173.375,676.75,464.625,16.875,2022.375,901.875,2027.125,0.0700000000000002,2.8800000000000026
23.0,1015.5,76.25,2.5,1171.875,674.5,463.25,16.875,2021.75,902.0,2026.375,0.0499999999999971,2.869999999999997
23.1,1019.625,77.0,2.625,1170.25,672.25,462.0,17.0,2021.125,902.0,2025.5,0.0399999999999991,2.8500000000000014
23.2,1023.625,77.75,2.625,1168.75,669.875,460.625,17.0,2020.375,902.0,2024.625,0.0700000000000002,2.8599999999999994
23.3,1027.5,78.375,2.625,1167.125,667.5,459.25,17.0,2019.75,902.125,2023.75,0.0799999999999983,2.8599999999999994
23.4,1031.375,79.25,2.625,1165.5,665.125,457.875,17.125,2019.0,902.0,2022.75,0.0499999999999971,2.910000000000004
23.5,1035.0,79.875,2.75,1163.875,662.625,456.5,17.125,2018.25,901.875,2021.875,0.1000000000000014,2.8599999999999994
23.6,1038.625,80.625,2.75,1162.25,660.25,455.0,17.125,2017.375,901.75,2020.875,0.0700000000000002,2.8200000000000003
23.7,1042.125,81.25,2.75,1160.5,657.75,453.625,17.125,2016.625,901.625,2019.875,0.0499999999999971,2.910000000000004
23.8,1045.5,82.0,2.75,1158.75,655.25,452.125,17.125,2015.875,901.375,2018.875,0.0700000000000002,2.8400000000000034
23.9,1048.75,82.625,2.875,1157.0,652.75,450.75,17.375,2015.0,901.125,2017.75,0.0799999999999983,2.8400000000000034
24.0,1052.0,83.375,2.875,1155.125,650.125,449.25,17.25,2014.125,901.0,2016.5,0.0499999999999971,2.8299999999999983
24.1,1055.0,84.125,2.875,1153.375,647.625,447.75,17.375,2013.25,900.625,2015.25,0.0499999999999971,2.8599999999999994
24.2,1058.0,84.75,2.875,1151.5,645.0,446.25,17.375,2012.25,900.375,2014.0,0.0499999999999971,2.8400000000000034
24.3,1060.875,85.5,3.0,1149.625,642.375,444.625,17.25,2011.375,900.0,2012.75,0.0499999999999971,2.8299999999999983
24.4,1063.75,86.125,3.0,1147.625,639.75,443.125,17.375,2010.375,899.625,2011.5,0.0399999999999991,2.8299999999999983
24.5,1066.5,86.75,3.0,1145.75,637.0,441.75,17.25,2009.375,899.25,2010.25,0.0700000000000002,2.799999999999997
24.6,1069.125,87.5,3.125,1143.75,634.375,440.125,17.375,2008.375,898.75,2008.875,0.0700000000000002,2.8200000000000003
24.7,1071.625,88.0,3.0,1141.75,631.625,438.625,17.375,2007.375,898.375,2007.5,0.0799999999999983,2.8400000000000034
24.8,1074.125,88.75,3.125,1139.75,629.0,437.125,17.25,2006.375,897.875,2006.125,0.0499999999999971,2.789999999999999
24.9,1076.5,89.375,3.125,1137.75,626.25,435.5,17.25,2005.25,897.375,2004.75,0.0399999999999991,2.789999999999999
25.0,1078.75,89.875,3.125,1135.75,623.5,434.0,17.375,2004.25,896.875,2003.375,0.0700000000000002,2.799999999999997
25.1,1081.0,90.625,3.25,1133.625,620.75,432.375,17.375,2003.125,896.25,2002.0,0.0700000000000002,2.789999999999999
25.2,1083.0,91.125,3.125,1131.5,618.0,430.875,17.5,2002.0,895.75,2000.375,0.0700000000000002,2.799999999999997
25.3,1085.125,91.875,3.25,1129.375,615.125,429.25,17.5,2000.875,895.125,1999.0,0.0399999999999991,2.8100000000000023
25.4,1087.0,92.5,3.25,1127.125,612.375,427.625,17.375,1999.75,894.5,1997.5,0.0499999999999971,2.789999999999999
25.5,1088.875,93.0,3.375,1125.0,609.625,426.0,17.375,1998.5,893.875,1996.0,0.0700000000000002,2.780000000000001
25.6,1090.75,93.625,3.375,1122.875,606.75,424.375,17.5,1997.375,893.25,1994.5,0.0700000000000002,2.719999999999999
25.7,1092.5,94.125,3.375,1120.625,604.0,422.75,17.375,1996.125,892.5,1992.875,0.0700000000000002,2.759999999999998
25.8,1094.125,94.75,3.375,1118.375,601.125,421.125,17.5,1995.0,891.875,1991.25,0.0799999999999983,2.780000000000001
25.9,1095.75,95.375,3.375,1116.125,598.375,419.5,17.375,1993.75,891.125,1989.625,0.0499999999999971,2.730000000000004
26.0,1097.375,95.875,3.375,1113.875,595.5,417.875,17.5,1992.5,890.375,1987.75,0.0300000000000011,2.719999999999999
26.1,1098.75,96.5,3.5,1111.5,592.625,416.125,17.25,1991.25,889.625,1986.0,0.0499999999999971,2.700000000000003
26.2,1100.125,97.0,3.5,1109.25,589.75,414.5,17.625,1989.875,888.875,1984.375,0.0399999999999991,2.6899999999999977
26.3,1101.5,97.625,3.5,1106.875,586.875,412.875,17.5,1988.625,888.125,1982.625,0.0399999999999991,2.75
26.4,1102.75,98.125,3.625,1104.625,584.0,411.25,17.5,1987.375,887.375,1980.875,0.0499999999999971,2.700000000000003
26.5,1104.0,98.75,3.5,1102.25,581.125,409.625,17.5,1986.0,886.5,1979.0,0.0399999999999991,2.6899999999999977
26.6,1105.125,99.25,3.625,1099.875,578.375,408.0,17.375,1984.625,885.625,1977.25,0.0399999999999991,2.6899999999999977
26.7,1106.25,99.75,3.625,1097.5,575.5,406.375,17.5,1983.25,884.875,1975.375,0.0499999999999971,2.660000000000004
26.8,1107.25,100.25,3.625,1095.0,572.5,404.75,17.625,1981.875,884.0,1973.375,0.0700000000000002,2.6899999999999977
26.9,1108.25,100.75,3.625,1092.625,569.625,403.125,17.5,1980.5,883.125,1971.5,0.0700000000000002,2.5700000000000003
27.0,1109.125,101.25,3.625,1090.25,566.75,401.5,17.5,1979.125,882.25,1969.625,0.0499999999999971,2.68
27.1,1110.0,101.875,3.75,1087.75,563.875,399.875,17.25,1977.75,881.25,1967.75,0.0499999999999971,2.660000000000004
27.2,1110.75,102.25,3.75,1085.25,561.0,398.125,17.25,1976.25,880.375,1965.75,0.0700000000000002,2.660000000000004
27.3,1111.5,102.75,3.75,1082.875,558.0,396.625,17.375,1974.75,879.375,1963.875,0.0399999999999991,2.660000000000004
27.4,1112.25,103.25,3.75,1080.375,555.0,394.875,17.375,1973.25,878.375,1961.875,0.0499999999999971,2.6300000000000026
27.5,1112.875,103.75,3.75,1077.75,552.125,393.25,17.375,1971.75,877.5,1959.875,0.0399999999999991,2.6300000000000026
27.6,1113.375,104.25,3.875,1075.375,549.25,391.625,17.25,1970.375,876.5,1958.0,0.0499999999999971,2.5900000000000034
