time(s),F1,F2,F3,F4,F5,F6,F7,F8,F9,F10,Temp,Humid
10.0,8.375,4.875,1.25,-2.25,-18.625,-18.125,-0.25,5.25,-2.75,-18.25,0.0600000000000022,-1.2999999999999972
10.1,8.375,4.875,1.25,-2.75,-18.75,-18.375,-0.125,5.0,-2.875,-18.625,0.0399999999999991,-1.2999999999999972
10.2,8.375,5.0,1.25,-3.125,-19.0,-18.5,-0.25,4.75,-3.0,-19.0,0.0300000000000011,-1.3299999999999983
10.3,8.25,4.875,1.125,-3.625,-19.25,-18.625,-0.25,4.5,-3.125,-19.375,0.0300000000000011,-1.3499999999999943
10.4,8.25,5.0,1.125,-4.0,-19.25,-18.875,-0.375,4.25,-3.25,-19.625,0.0300000000000011,-1.3499999999999943
10.5,8.25,5.0,1.0,-4.375,-19.5,-19.0,-0.375,4.0,-3.375,-19.75,0.0300000000000011,-1.3499999999999943
10.6,8.25,5.0,1.125,-4.75,-19.75,-19.125,-0.375,3.75,-3.5,-19.75,0.0600000000000022,-1.3399999999999963
10.7,8.25,5.125,1.0,-5.25,-19.75,-19.25,-0.375,3.5,-3.5,-18.875,0.0300000000000011,-1.3599999999999994
10.8,8.375,5.125,1.0,-5.5,-19.75,-19.25,-0.25,3.25,-3.625,-16.5,0.0399999999999991,-1.3999999999999986
10.9,8.625,5.125,1.0,-5.875,-19.5,-19.125,-0.25,3.125,-3.625,-11.375,0.0300000000000011,-1.3999999999999986
11.0,9.0,5.125,1.0,-5.75,-18.875,-18.625,-0.25,3.125,-3.375,-2.125,0.0300000000000011,-1.4199999999999946
11.1,9.75,5.125,0.875,-5.25,-17.625,-17.875,-0.125,3.75,-2.625,12.375,0.0399999999999991,-1.4299999999999995
11.2,10.875,5.25,0.875,-3.25,-15.375,-15.875,0.125,5.25,-0.625,33.375,0.0300000000000011,-1.4799999999999969
11.3,12.625,5.25,0.875,0.625,-11.875,-12.75,0.0,8.375,3.625,61.625,0.0300000000000011,-1.4600000000000009
11.4,14.875,5.375,0.875,7.375,-7.0,-8.25,0.375,14.125,11.0,98.125,0.0600000000000022,-1.4299999999999995
11.5,17.75,5.5,0.875,17.625,-0.625,-2.125,0.5,23.5,23.0,145.75,0.0399999999999991,-1.4799999999999969
11.6,21.5,5.625,0.875,32.0,7.25,5.5,0.625,37.5,40.375,206.0,0.0399999999999991,-1.4799999999999969
11.7,26.0,5.875,0.875,51.125,16.625,14.25,1.125,57.25,63.125,278.0,0.0300000000000011,-1.4600000000000009
11.8,31.5,6.125,0.875,75.5,27.5,24.625,1.125,84.125,91.625,362.5,0.0399999999999991,-1.4600000000000009
11.9,37.75,6.5,0.875,105.5,39.75,36.25,1.75,119.25,125.5,458.5,0.009999999999998,-1.5399999999999991
12.0,45.0,6.875,0.875,141.25,53.25,49.125,2.0,163.375,164.375,562.5,0.0399999999999991,-1.4899999999999949
12.1,53.25,7.375,0.75,183.375,68.375,63.25,2.25,218.125,208.875,672.625,0.0300000000000011,-1.4399999999999975
12.2,62.375,7.875,0.75,231.5,85.125,78.625,2.75,283.125,258.125,784.25,0.0399999999999991,-1.4799999999999969
12.3,72.25,8.5,0.75,284.75,103.25,94.875,3.0,357.5,310.5,894.375,0.0600000000000022,-1.4499999999999955
12.4,83.125,9.125,0.875,343.75,123.125,112.125,3.5,442.625,366.0,1003.625,0.0399999999999991,-1.4299999999999995
12.5,94.75,9.625,0.75,406.5,144.125,129.875,3.75,536.25,422.625,1108.25,0.0300000000000011,-1.4399999999999975
12.6,107.375,10.5,0.75,473.375,166.625,148.5,4.25,639.375,480.75,1208.0,0.0399999999999991,-1.3999999999999986
12.7,120.875,11.25,0.75,542.75,190.375,167.625,4.75,750.0,539.25,1300.5,0.0300000000000011,-1.3900000000000006
12.8,135.0,12.125,0.875,612.625,215.0,187.0,5.0,864.5,597.0,1384.125,0.0399999999999991,-1.3699999999999974
12.9,150.0,12.875,0.75,683.5,240.875,206.625,5.375,983.625,654.625,1461.125,0.0300000000000011,-1.3599999999999994
13.0,165.875,13.75,0.875,753.625,267.625,226.5,5.625,1104.125,711.25,1531.375,0.0399999999999991,-1.3699999999999974
13.1,182.125,14.625,0.875,821.125,295.0,246.25,6.0,1222.125,765.875,1593.875,0.009999999999998,-1.3299999999999983
13.2,199.25,15.75,0.875,886.625,323.375,266.125,6.5,1337.5,819.375,1650.375,0.0399999999999991,-1.2999999999999972
13.3,216.875,16.75,0.875,948.875,352.25,285.875,6.75,1447.375,870.75,1700.125,0.0399999999999991,-1.2399999999999949
13.4,235.125,17.75,0.875,1006.875,381.125,305.125,7.25,1549.25,919.625,1743.75,0.0399999999999991,-1.2399999999999949
13.5,254.0,18.75,1.0,1061.75,410.5,324.25,7.75,1644.625,966.625,1783.25,0.0399999999999991,-1.2299999999999969
13.6,273.375,20.0,0.875,1112.75,439.875,343.0,8.125,1731.75,1011.125,1819.375,0.0600000000000022,-1.1799999999999995
13.7,293.0,21.0,1.0,1159.25,469.125,361.0,8.375,1809.875,1052.875,1852.25,0.0399999999999991,-1.1499999999999986
13.8,313.375,22.25,1.0,1202.5,498.25,378.75,8.5,1880.625,1092.75,1882.875,0.0399999999999991,-1.1199999999999974
13.9,334.0,23.375,1.0,1242.25,526.875,395.875,9.0,1943.625,1130.375,1910.625,0.0399999999999991,-1.1099999999999994
14.0,354.875,24.625,1.0,1278.375,554.875,412.375,9.375,1999.25,1165.5,1935.5,0.0600000000000022,-1.1099999999999994
14.1,376.375,25.75,1.0,1311.75,582.625,428.25,9.625,2049.125,1199.0,1958.25,0.0600000000000022,-1.019999999999996
14.2,398.0,27.125,1.125,1342.25,609.625,443.625,9.875,2093.5,1230.375,1978.875,0.0600000000000022,-1.019999999999996
14.3,419.625,28.25,1.125,1370.0,635.5,458.125,10.125,2132.375,1259.625,1997.5,0.0399999999999991,-0.9699999999999988
14.4,441.625,29.625,1.125,1395.625,660.875,472.25,10.5,2167.5,1287.5,2014.5,0.0600000000000022,-0.9299999999999996
14.5,463.875,31.0,1.25,1419.0,685.25,485.75,10.75,2198.625,1313.75,2030.25,0.0399999999999991,-0.9299999999999996
14.6,485.875,32.375,1.25,1440.25,708.5,498.5,11.0,2226.125,1338.0,2044.875,0.0399999999999991,-0.8599999999999994
14.7,508.25,33.75,1.25,1460.0,731.125,510.75,11.375,2251.125,1361.125,2058.5,0.0600000000000022,-0.8399999999999963
14.8,530.75,35.125,1.25,1478.0,752.625,522.375,11.5,2273.5,1382.875,2071.25,0.0399999999999991,-0.8099999999999952
14.9,552.875,36.625,1.375,1494.5,773.125,533.375,12.0,2293.375,1403.125,2083.0,0.0399999999999991,-0.75
15.0,575.25,38.0,1.375,1509.875,792.75,543.75,12.125,2311.375,1422.25,2094.0,0.0600000000000022,-0.7199999999999989
15.1,597.5,39.5,1.375,1523.875,811.5,553.625,12.375,2327.625,1440.375,2104.25,0.0399999999999991,-0.6899999999999977
15.2,619.625,41.0,1.5,1536.875,829.25,562.875,12.75,2342.125,1457.25,2113.75,0.0399999999999991,-0.6899999999999977
15.3,641.625,42.5,1.5,1548.875,846.0,571.75,13.0,2355.375,1473.125,2122.625,0.0600000000000022,-0.6199999999999974
15.4,663.625,44.0,1.5,1560.125,862.125,580.125,13.25,2367.5,1488.125,2131.125,0.0600000000000022,-0.5599999999999952
15.5,685.125,45.5,1.625,1570.25,877.0,587.875,13.5,2378.375,1502.125,2138.875,0.0600000000000022,-0.5899999999999963
15.6,706.625,47.125,1.625,1579.875,891.25,595.25,13.5,2388.25,1515.5,2146.125,0.0600000000000022,-0.5399999999999991
15.7,727.625,48.625,1.75,1588.75,904.625,602.0,13.75,2397.25,1527.875,2152.75,0.0300000000000011,-0.5399999999999991
15.8,748.75,50.25,1.75,1597.0,917.25,608.625,14.125,2405.375,1539.625,2159.125,0.0600000000000022,-0.4799999999999969
15.9,769.5,51.75,1.875,1604.625,929.25,614.625,14.5,2412.875,1550.625,2165.0,0.0399999999999991,-0.519999999999996
16.0,789.875,53.5,1.875,1611.75,940.375,620.125,14.5,2419.625,1561.0,2170.5,0.0399999999999991,-0.4899999999999949
16.1,810.0,55.125,1.875,1618.5,950.875,625.5,14.875,2426.0,1570.875,2175.5,0.0399999999999991,-0.3999999999999986
16.2,829.875,56.75,1.875,1624.625,960.75,630.375,14.875,2431.625,1580.0,2180.25,0.0600000000000022,-0.4399999999999977
16.3,849.25,58.25,1.875,1630.375,969.875,635.0,15.25,2436.75,1588.75,2184.625,0.0600000000000022,-0.4099999999999966
16.4,868.5,60.0,2.0,1635.75,978.5,639.125,15.375,2441.5,1597.0,2188.5,0.0399999999999991,-0.3799999999999954
16.5,887.375,61.625,2.125,1640.625,986.5,643.125,15.625,2445.875,1604.625,2192.125,0.0600000000000022,-0.3200000000000003
16.6,905.625,63.375,2.125,1645.25,993.875,646.75,15.875,2449.75,1611.875,2195.5,0.0399999999999991,-0.2899999999999991
16.7,923.875,65.0,2.25,1649.5,1001.0,650.0,16.125,2453.5,1618.75,2198.75,0.0700000000000002,-0.2999999999999971
16.8,941.625,66.75,2.125,1653.5,1007.375,653.125,16.25,2456.75,1625.25,2201.875,0.0700000000000002,-0.2800000000000011
16.9,958.75,68.375,2.25,1657.125,1013.25,655.875,16.5,2459.875,1631.25,2204.625,0.0399999999999991,-0.2800000000000011
17.0,975.75,70.125,2.25,1660.625,1018.875,658.625,16.625,2462.75,1637.0,2207.25,0.0399999999999991,-0.2199999999999988
17.1,992.375,71.75,2.375,1663.75,1023.875,660.875,16.75,2465.375,1642.5,2209.75,0.0399999999999991,-0.1999999999999957
17.2,1008.375,73.5,2.375,1666.75,1028.5,663.125,17.0,2467.75,1647.5,2211.875,0.0399999999999991,-0.2199999999999988
17.3,1024.25,75.125,2.375,1669.375,1032.875,665.0,17.125,2469.875,1652.375,2214.0,0.0700000000000002,-0.1400000000000005
17.4,1039.625,76.875,2.5,1671.875,1036.75,666.75,17.375,2471.875,1656.875,2215.875,0.0399999999999991,-0.1599999999999966
17.5,1054.5,78.625,2.625,1674.125,1040.125,668.375,17.5,2473.75,1661.125,2217.625,0.0399999999999991,-0.1899999999999977
17.6,1069.125,80.375,2.625,1676.25,1043.375,669.625,17.75,2475.5,1665.25,2219.375,0.0399999999999991,-0.1099999999999994
17.7,1083.375,82.125,2.625,1678.125,1046.125,670.875,17.75,2476.875,1669.125,2220.875,0.0300000000000011,-0.0899999999999963
17.8,1097.125,83.875,2.75,1679.875,1048.625,671.875,17.875,2478.375,1672.75,2222.375,0.0399999999999991,-0.0899999999999963
17.9,1110.5,85.5,2.75,1681.5,1050.875,672.75,18.25,2479.625,1676.125,2223.625,0.0399999999999991,-0.0700000000000002
18.0,1123.625,87.25,2.75,1682.875,1053.0,673.5,18.375,2480.75,1679.375,2224.875,0.009999999999998,-0.0899999999999963
18.1,1136.125,89.0,2.875,1684.125,1054.625,674.0,18.75,2481.75,1682.375,2226.0,0.0399999999999991,-0.0399999999999991
18.2,1148.5,90.875,2.875,1685.25,1056.0,674.5,18.75,2482.75,1685.25,2227.0,0.0600000000000022,-0.0399999999999991
18.3,1160.375,92.625,3.0,1686.25,1057.25,674.75,18.875,2483.625,1688.0,2227.875,0.0600000000000022,-0.0700000000000002
18.4,1171.875,94.25,3.125,1687.125,1058.25,674.875,18.875,2484.375,1690.5,2228.625,0.0399999999999991,0.0300000000000011
18.5,1183.0,96.0,3.125,1687.875,1058.875,675.0,18.875,2485.125,1692.875,2229.375,0.0399999999999991,0.0200000000000031
18.6,1193.875,97.875,3.125,1688.5,1059.5,675.0,19.25,2485.625,1695.25,2230.125,0.0600000000000022,-0.0399999999999991
18.7,1204.25,99.625,3.25,1689.0,1059.625,674.75,19.25,2486.125,1697.25,2230.75,0.0399999999999991,0.0
18.8,1214.375,101.25,3.375,1689.375,1059.75,674.5,19.5,2486.625,1699.25,2231.25,0.0600000000000022,-0.0300000000000011
18.9,1224.125,103.0,3.375,1689.625,1059.5,674.0,19.625,2487.0,1701.25,2231.75,0.0399999999999991,0.0500000000000042
19.0,1233.625,104.75,3.375,1689.875,1059.125,673.625,19.75,2487.375,1703.0,2232.125,0.0399999999999991,0.0900000000000034
19.1,1242.625,106.5,3.375,1690.0,1058.5,673.0,20.0,2487.625,1704.625,2232.5,0.0700000000000002,0.0500000000000042
19.2,1251.375,108.25,3.5,1690.125,1057.75,672.375,20.125,2487.75,1706.25,2232.75,0.0399999999999991,0.0600000000000022
19.3,1260.0,110.0,3.5,1690.125,1056.875,671.625,20.125,2488.0,1707.75,2232.875,0.0799999999999983,0.0500000000000042
19.4,1268.125,111.75,3.625,1690.0,1055.75,670.75,20.375,2488.0,1709.125,2233.125,0.0700000000000002,0.1000000000000014
19.5,1276.0,113.5,3.625,1689.875,1054.5,670.0,20.25,2488.0,1710.375,2233.125,0.0700000000000002,0.0800000000000054
19.6,1283.625,115.25,3.75,1689.5,1053.25,669.0,20.375,2488.0,1711.5,2233.25,0.0700000000000002,0.0600000000000022
19.7,1291.0,116.875,3.75,1689.125,1051.875,668.0,20.375,2488.0,1712.625,2233.25,0.0600000000000022,0.0300000000000011
19.8,1298.0,118.625,3.75,1688.875,1050.375,667.0,20.625,2488.0,1713.625,2233.25,0.0399999999999991,0.0800000000000054
19.9,1304.75,120.25,3.875,1688.375,1048.75,665.875,20.625,2487.75,1714.5,2233.125,0.0600000000000022,0.0900000000000034
20.0,1311.375,122.0,3.875,1687.875,1047.0,664.625,21.0,2487.625,1715.375,2232.875,0.0600000000000022,0.0900000000000034
20.1,1317.5,123.75,3.875,1687.25,1045.25,663.375,20.875,2487.375,1716.125,2232.625,0.0399999999999991,0.0300000000000011
20.2,1323.625,125.375,4.0,1686.625,1043.375,662.0,21.125,2487.125,1716.875,2232.375,0.0399999999999991,0.0800000000000054
20.3,1329.375,127.0,4.125,1685.875,1041.25,660.75,21.0,2486.875,1717.5,2232.0,0.0600000000000022,0.1400000000000005
20.4,1334.875,128.75,4.125,1685.125,1039.125,659.25,21.375,2486.625,1718.125,2231.625,0.0399999999999991,0.1099999999999994
20.5,1340.125,130.375,4.125,1684.25,1036.75,657.75,21.375,2486.125,1718.625,2231.25,0.0399999999999991,0.0900000000000034
20.6,1345.375,132.125,4.125,1683.375,1034.375,656.25,21.25,2485.75,1719.125,2230.75,0.0600000000000022,0.0900000000000034
20.7,1350.125,133.75,4.25,1682.5,1032.0,654.625,21.5,2485.375,1719.5,2230.125,0.0600000000000022,0.0800000000000054
20.8,1354.875,135.375,4.25,1681.5,1029.25,653.0,21.5,2485.0,1719.875,2229.625,0.0600000000000022,0.0900000000000034
20.9,1359.375,137.0,4.375,1680.5,1026.625,651.375,21.625,2484.5,1720.25,2229.125,0.0399999999999991,0.0800000000000054
21.0,1363.625,138.625,4.375,1679.5,1024.0,649.625,21.5,2484.0,1720.5,2228.625,0.0600000000000022,0.0600000000000022
21.1,1367.625,140.25,4.5,1678.5,1021.375,647.875,21.875,2483.5,1720.625,2228.0,0.0600000000000022,0.0600000000000022
21.2,1371.625,142.0,4.5,1677.25,1018.5,646.0,21.875,2482.875,1721.0,2227.375,0.0399999999999991,0.0900000000000034
21.3,1375.375,143.375,4.5,1676.125,1015.75,644.25,21.875,2482.375,1721.0,2226.75,0.0700000000000002,0.0500000000000042
21.4,1378.875,145.0,4.625,1675.0,1012.75,642.375,21.875,2481.75,1721.125,2226.0,0.0399999999999991,0.0900000000000034
21.5,1382.25,146.625,4.625,1673.75,1009.75,640.5,21.875,2481.125,1721.125,2225.5,0.0600000000000022,0.0600000000000022
21.6,1385.5,148.25,4.625,1672.375,1006.75,638.5,21.875,2480.5,1721.125,2224.75,0.0600000000000022,0.0900000000000034
21.7,1388.625,149.75,4.75,1671.0,1003.75,636.5,22.25,2479.875,1721.25,2224.0,0.0700000000000002,0.0800000000000054
21.8,1391.5,151.375,4.75,1669.625,1000.5,634.5,22.375,2479.25,1721.125,2223.25,0.0799999999999983,0.1000000000000014
21.9,1394.25,152.875,4.75,1668.25,997.375,632.625,22.125,2478.625,1721.0,2222.5,0.0600000000000022,0.0800000000000054
22.0,1397.0,154.375,4.875,1666.875,994.125,630.5,22.125,2477.875,1720.875,2221.625,0.0700000000000002,0.0600000000000022
22.1,1399.5,156.0,4.875,1665.375,990.75,628.5,22.25,2477.125,1720.625,2220.75,0.0700000000000002,0.0200000000000031
22.2,1401.75,157.375,5.0,1663.75,987.5,626.375,22.375,2476.375,1720.5,2219.875,0.0399999999999991,0.0800000000000054
22.3,1404.0,159.0,5.0,1662.125,984.125,624.25,22.375,2475.5,1720.25,2219.0,0.0600000000000022,0.1099999999999994
22.4,1406.125,160.375,5.0,1660.625,980.75,622.125,22.625,2474.75,1720.0,2218.0,0.0399999999999991,0.0300000000000011
22.5,1408.125,161.875,5.0,1659.0,977.25,620.0,22.5,2474.0,1719.625,2217.0,0.0700000000000002,0.0100000000000051
22.6,1410.0,163.375,5.125,1657.25,973.625,617.75,22.75,2473.125,1719.375,2216.125,0.0399999999999991,0.0
22.7,1411.875,164.875,5.125,1655.625,970.125,615.625,22.875,2472.375,1719.0,2215.125,0.0600000000000022,0.0600000000000022
22.8,1413.5,166.375,5.125,1653.875,966.5,613.375,22.75,2471.5,1718.625,2214.0,0.0399999999999991,0.0500000000000042
22.9,1415.125,167.75,5.125,1652.125,962.875,611.0,23.0,2470.75,1718.25,2213.0,0.0399999999999991,0.0
23.0,1416.625,169.125,5.25,1650.375,959.25,608.875,23.0,2469.875,1717.75,2212.0,0.0399999999999991,0.0200000000000031
23.1,1418.0,170.5,5.25,1648.625,955.625,606.5,23.125,2469.0,1717.375,2210.875,0.0399999999999991,-0.0399999999999991
23.2,1419.125,171.875,5.25,1646.75,951.875,604.25,23.125,2468.125,1716.875,2209.75,0.0600000000000022,0.0
23.3,1420.375,173.25,5.25,1645.0,948.125,602.0,23.125,2467.25,1716.375,2208.625,0.0700000000000002,0.0100000000000051
23.4,1421.5,174.625,5.25,1643.0,944.375,599.75,23.125,2466.25,1715.875,2207.5,0.0799999999999983,-0.009999999999998
23.5,1422.5,176.0,5.375,1641.25,940.625,597.375,23.125,2465.375,1715.375,2206.5,0.0600000000000022,-0.009999999999998
23.6,1423.5,177.375,5.375,1639.25,936.75,595.125,23.25,2464.5,1714.75,2205.25,0.0600000000000022,0.0
23.7,1424.25,178.625,5.5,1637.375,933.0,592.75,23.25,2463.375,1714.25,2204.125,0.0600000000000022,-0.009999999999998
23.8,1425.125,180.0,5.5,1635.375,929.125,590.5,23.125,2462.5,1713.75,2202.875,0.0399999999999991,-0.0300000000000011
23.9,1425.75,181.25,5.5,1633.375,925.25,588.25,23.25,2461.625,1713.125,2201.75,0.0700000000000002,-0.009999999999998
24.0,1426.375,182.625,5.5,1631.5,921.375,585.875,23.125,2460.5,1712.5,2200.625,0.0700000000000002,-0.0399999999999991
24.1,1427.0,183.875,5.5,1629.5,917.5,583.625,23.125,2459.5,1711.75,2199.375,0.0600000000000022,-0.0700000000000002
24.2,1427.375,185.125,5.5,1627.5,913.625,581.375,23.25,2458.5,1711.25,2198.0,0.0399999999999991,-0.0599999999999951
24.3,1427.875,186.375,5.625,1625.5,909.625,579.0,23.25,2457.5,1710.5,2196.75,0.0600000000000022,-0.0399999999999991
24.4,1428.125,187.75,5.625,1623.5,905.625,576.625,23.5,2456.5,1709.875,2195.5,0.0700000000000002,-0.0999999999999943
24.5,1428.5,188.875,5.625,1621.375,901.75,574.375,23.5,2455.375,1709.125,2194.125,0.0600000000000022,-0.0899999999999963
24.6,1428.75,190.125,5.625,1619.375,897.75,572.0,23.75,2454.375,1708.5,2192.875,0.0600000000000022,-0.0700000000000002
24.7,1428.875,191.375,5.75,1617.375,893.75,569.75,23.5,2453.375,1707.75,2191.625,0.0600000000000022,-0.1099999999999994
24.8,1429.0,192.625,5.75,1615.25,889.75,567.5,23.375,2452.25,1707.125,2190.25,0.0300000000000011,-0.1199999999999974
24.9,1429.0,193.75,5.75,1613.125,885.75,565.125,23.625,2451.125,1706.375,2188.875,0.0700000000000002,-0.1299999999999954
25.0,1429.125,194.875,5.75,1611.0,881.75,562.875,23.625,2450.0,1705.5,2187.5,0.0600000000000022,-0.1299999999999954
25.1,1429.0,196.125,5.75,1608.875,877.75,560.625,23.625,2449.0,1704.75,2186.125,0.0799999999999983,-0.1299999999999954
25.2,1428.875,197.25,5.75,1606.75,873.75,558.25,23.75,2447.875,1704.0,2184.75,0.0600000000000022,-0.1400000000000005
25.3,1428.75,198.25,5.875,1604.625,869.625,556.0,23.875,2446.625,1703.25,2183.25,0.0700000000000002,-0.1400000000000005
25.4,1428.625,199.5,5.875,1602.375,865.75,553.625,23.625,2445.5,1702.375,2181.75,0.0399999999999991,-0.1499999999999985
25.5,1428.375,200.625,5.875,1600.25,861.625,551.375,23.75,2444.5,1701.5,2180.25,0.0700000000000002,-0.1699999999999946
25.6,1428.125,201.625,5.875,1598.0,857.625,549.0,23.625,2443.25,1700.75,2178.875,0.0700000000000002,-0.2100000000000008
25.7,1427.75,202.875,5.875,1595.875,853.5,546.75,23.625,2442.125,1699.875,2177.25,0.0600000000000022,-0.1899999999999977
25.8,1427.375,203.875,5.875,1593.625,849.5,544.375,23.625,2441.0,1699.0,2175.75,0.0399999999999991,-0.1799999999999997
25.9,1427.0,205.0,6.0,1591.375,845.5,542.25,23.75,2439.875,1698.125,2174.25,0.0600000000000022,-0.1999999999999957
26.0,1426.5,206.0,6.0,1589.25,841.5,539.875,23.75,2438.625,1697.25,2172.75,0.0600000000000022,-0.2299999999999968
26.1,1426.125,207.25,6.0,1586.875,837.375,537.625,23.75,2437.5,1696.375,2171.25,0.0600000000000022,-0.1599999999999966
26.2,1425.625,208.125,6.0,1584.75,833.5,535.375,23.75,2436.375,1695.5,2169.75,0.0399999999999991,-0.2199999999999988
26.3,1425.0,209.0,6.0,1582.5,829.5,533.125,23.875,2435.125,1694.5,2168.125,0.0399999999999991,-0.1899999999999977
26.4,1424.375,210.125,6.0,1580.25,825.5,530.875,23.75,2434.0,1693.625,2166.5,0.0799999999999983,-0.2299999999999968
26.5,1423.875,211.0,6.0,1578.0,821.5,528.625,23.75,2432.75,1692.75,2165.125,0.0700000000000002,-0.2800000000000011
26.6,1423.125,212.0,6.0,1575.625,817.5,526.375,23.875,2431.625,1691.75,2163.5,0.0399999999999991,-0.2299999999999968
26.7,1422.5,212.875,6.125,1573.375,813.625,524.125,23.875,2430.375,1690.875,2162.0,0.0600000000000022,-0.259999999999998
26.8,1421.75,213.875,6.125,1571.0,809.625,522.0,24.0,2429.125,1689.875,2160.375,0.0600000000000022,-0.3099999999999951
26.9,1421.0,214.875,6.125,1568.75,805.625,519.75,23.875,2428.0,1689.0,2158.875,0.0600000000000022,-0.2899999999999991
27.0,1420.25,215.75,6.125,1566.375,801.75,517.5,23.875,2426.75,1688.0,2157.25,0.0600000000000022,-0.3099999999999951
