time(s),F1,F2,F3,F4,F5,F6,F7,F8,F9,F10,Temp,Humid
10.0,-2.625,0.25,0.375,-12.625,-6.5,-5.25,-0.125,-9.375,-10.375,-15.375,0.0799999999999983,-0.7000000000000028
10.1,-2.75,0.125,0.375,-12.75,-6.625,-5.25,0.0,-9.5,-10.5,-15.5,0.0799999999999983,-0.6099999999999994
10.2,-2.75,0.25,0.375,-13.0,-6.625,-5.375,0.0,-9.625,-10.5,-15.5,0.0799999999999983,-0.6799999999999997
10.3,-2.75,0.125,0.25,-13.125,-6.625,-5.25,0.125,-9.875,-10.5,-15.5,0.0999999999999943,-0.6199999999999974
10.4,-2.875,0.25,0.125,-13.375,-6.625,-5.25,0.125,-9.875,-10.5,-15.25,0.0499999999999971,-0.6099999999999994
10.5,-2.875,0.125,0.125,-13.5,-6.625,-5.25,0.25,-10.125,-10.5,-13.75,0.0799999999999983,-0.6700000000000017
10.6,-2.75,0.125,0.125,-13.75,-6.5,-5.25,0.125,-10.25,-10.5,-10.125,0.0799999999999983,-0.6499999999999986
10.7,-2.625,0.125,0.125,-13.75,-5.875,-5.0,0.125,-10.25,-10.375,-3.375,0.0700000000000002,-0.6499999999999986
10.8,-2.25,0.125,0.0,-13.5,-4.5,-4.375,0.25,-10.125,-10.25,7.25,0.0799999999999983,-0.7100000000000009
10.9,-1.625,0.25,0.0,-12.25,-2.125,-3.0,0.25,-9.375,-9.5,22.375,0.0999999999999943,-0.6300000000000026
11.0,-0.625,0.25,0.0,-9.5,1.375,-0.625,0.5,-7.5,-7.5,43.0,0.0999999999999943,-0.6300000000000026
11.1,1.0,0.375,0.0,-4.375,6.125,3.25,0.5,-3.75,-3.25,69.5,0.0999999999999943,-0.6700000000000017
11.2,3.0,0.375,-0.125,3.75,12.25,8.25,0.625,2.875,4.0,101.625,0.0799999999999983,-0.6700000000000017
11.3,5.75,0.5,-0.125,15.625,19.875,14.75,0.75,13.625,15.375,141.0,0.0999999999999943,-0.6700000000000017
11.4,9.125,0.75,-0.125,31.875,29.25,22.5,0.875,29.125,31.25,188.875,0.0799999999999983,-0.6499999999999986
11.5,13.125,1.0,-0.125,52.75,40.25,31.5,1.125,50.375,51.75,246.875,0.0799999999999983,-0.6400000000000006
11.6,17.875,1.25,-0.125,78.875,53.0,41.625,1.375,78.5,77.0,315.625,0.0700000000000002,-0.6499999999999986
11.7,23.5,1.5,-0.125,110.25,67.5,52.875,1.625,114.0,106.625,392.875,0.0799999999999983,-0.6099999999999994
11.8,29.625,1.875,-0.125,146.625,83.375,65.25,2.0,156.5,139.625,477.375,0.0799999999999983,-0.6099999999999994
11.9,36.625,2.375,-0.125,188.625,101.0,78.75,2.25,207.5,176.375,568.5,0.0999999999999943,-0.6300000000000026
12.0,44.375,2.75,-0.125,235.875,120.25,93.25,2.5,266.875,216.375,664.25,0.0999999999999943,-0.6300000000000026
12.1,52.75,3.25,-0.125,287.25,141.0,108.625,2.875,334.125,258.875,761.125,0.0999999999999943,-0.5900000000000034
12.2,61.875,3.875,-0.25,343.375,163.5,124.875,3.25,410.75,304.25,858.75,0.0999999999999943,-0.5600000000000023
12.3,71.75,4.5,-0.125,403.125,187.375,141.75,3.5,495.625,351.5,956.25,0.0799999999999983,-0.5900000000000034
12.4,82.125,5.125,-0.125,465.125,212.25,159.0,3.875,587.375,399.625,1049.375,0.0799999999999983,-0.5600000000000023
12.5,93.5,5.75,-0.125,529.625,238.25,176.875,4.125,686.375,448.875,1138.0,0.0999999999999943,-0.5300000000000011
12.6,105.25,6.5,-0.25,595.125,265.25,195.125,4.5,790.625,498.625,1219.625,0.1099999999999994,-0.5
12.7,117.75,7.125,-0.25,660.125,292.5,213.375,4.875,897.5,547.875,1293.625,0.1099999999999994,-0.490000000000002
12.8,130.875,7.875,-0.25,725.125,320.75,231.875,5.0,1007.875,597.5,1363.375,0.1099999999999994,-0.4399999999999977
12.9,144.375,8.75,-0.125,788.25,349.25,250.25,5.375,1117.75,646.375,1428.625,0.0999999999999943,-0.3999999999999986
13.0,158.625,9.5,-0.25,849.75,378.375,268.75,5.875,1227.5,695.125,1490.125,0.1099999999999994,-0.4099999999999966
13.1,173.25,10.375,-0.25,908.875,407.75,287.125,6.125,1334.625,743.0,1547.75,0.1299999999999954,-0.3699999999999974
13.2,188.375,11.25,-0.25,964.5,436.875,305.0,6.5,1436.5,789.125,1601.375,0.0799999999999983,-0.3699999999999974
13.3,204.125,12.125,-0.125,1017.625,466.0,322.75,6.75,1534.25,834.25,1650.625,0.1099999999999994,-0.3500000000000014
13.4,220.25,13.125,-0.25,1067.125,494.875,340.25,7.0,1625.5,877.875,1693.25,0.1299999999999954,-0.3200000000000003
13.5,236.625,14.0,-0.25,1113.0,523.0,357.125,7.5,1709.25,919.25,1730.75,0.1299999999999954,-0.259999999999998
13.6,253.625,15.125,-0.25,1156.0,550.75,373.75,7.75,1786.875,959.25,1765.375,0.1299999999999954,-0.2299999999999968
13.7,271.0,16.125,-0.125,1195.875,578.0,389.875,8.0,1857.625,997.875,1797.625,0.1299999999999954,-0.2199999999999988
13.8,288.375,17.0,-0.125,1232.25,604.125,405.375,8.25,1920.75,1034.125,1826.875,0.1099999999999994,-0.2199999999999988
13.9,306.375,18.0,-0.125,1266.125,629.75,420.625,8.5,1978.125,1069.25,1854.0,0.1400000000000005,-0.1400000000000005
14.0,324.625,19.125,-0.125,1297.375,654.625,435.125,8.875,2029.625,1102.75,1879.125,0.1299999999999954,-0.0600000000000022
14.1,342.875,20.25,-0.125,1325.875,678.5,449.125,9.125,2075.375,1134.25,1902.25,0.1299999999999954,-0.0700000000000002
14.2,361.625,21.25,-0.125,1352.25,701.75,462.625,9.5,2116.625,1164.625,1923.875,0.1299999999999954,-0.0600000000000022
14.3,380.5,22.375,-0.125,1376.625,724.0,475.625,9.625,2153.625,1193.5,1943.875,0.1299999999999954,0.0
14.4,399.375,23.375,0.0,1398.75,745.125,487.875,9.875,2186.25,1220.625,1962.25,0.1299999999999954,0.0799999999999983
14.5,418.5,24.625,0.0,1419.375,765.625,499.75,10.0,2215.75,1246.5,1979.25,0.1299999999999954,0.0799999999999983
14.6,437.75,25.75,0.0,1438.375,785.125,511.0,10.375,2242.375,1271.0,1995.125,0.1400000000000005,0.0799999999999983
14.7,456.875,26.875,0.0,1455.75,803.625,521.75,10.625,2266.0,1294.125,2009.875,0.1099999999999994,0.1199999999999974
14.8,476.375,28.125,0.0,1471.875,821.5,532.0,10.875,2287.5,1316.125,2023.625,0.1099999999999994,0.1799999999999997
14.9,495.75,29.25,0.125,1486.75,838.5,541.75,11.25,2306.875,1337.0,2036.25,0.1099999999999994,0.1799999999999997
15.0,515.0,30.5,0.125,1500.375,854.375,551.0,11.375,2324.25,1356.5,2047.625,0.1099999999999994,0.240000000000002
15.1,534.375,31.75,0.125,1513.25,869.75,559.75,11.75,2340.125,1375.125,2058.5,0.1400000000000005,0.2899999999999991
15.2,553.75,33.0,0.25,1525.0,884.375,568.125,11.875,2354.625,1392.75,2068.75,0.1099999999999994,0.3299999999999983
15.3,572.875,34.375,0.25,1535.875,898.125,576.0,12.25,2367.625,1409.25,2078.25,0.1099999999999994,0.3100000000000023
15.4,592.125,35.625,0.25,1546.0,911.125,583.5,12.375,2379.625,1425.0,2087.125,0.1099999999999994,0.4299999999999997
15.5,611.125,36.75,0.25,1555.5,923.625,590.5,12.625,2390.5,1439.875,2095.5,0.1400000000000005,0.4299999999999997
15.6,630.0,38.125,0.25,1564.125,935.25,597.125,12.75,2400.5,1453.75,2103.25,0.1499999999999985,0.490000000000002
15.7,648.875,39.375,0.375,1572.375,946.25,603.375,13.125,2409.625,1467.0,2110.5,0.1099999999999994,0.4500000000000028
15.8,667.5,40.75,0.375,1579.875,956.75,609.25,13.125,2418.0,1479.5,2117.375,0.1099999999999994,0.490000000000002
15.9,685.875,42.0,0.375,1586.875,966.5,614.625,13.5,2425.625,1491.375,2123.75,0.1299999999999954,0.6099999999999994
16.0,704.25,43.375,0.375,1593.625,975.75,619.875,13.75,2432.625,1502.5,2130.0,0.1299999999999954,0.5900000000000034
16.1,722.125,44.75,0.5,1599.625,984.25,624.75,13.875,2439.125,1513.0,2135.75,0.1299999999999954,0.5900000000000034
16.2,740.125,46.125,0.5,1605.375,992.5,629.25,13.875,2445.125,1523.125,2141.375,0.1099999999999994,0.6700000000000017
16.3,757.75,47.5,0.625,1610.75,1000.125,633.5,14.125,2450.625,1532.75,2146.625,0.1299999999999954,0.6799999999999997
16.4,775.125,48.75,0.625,1615.625,1007.25,637.5,14.375,2455.625,1541.625,2151.5,0.1299999999999954,0.740000000000002
16.5,792.375,50.25,0.75,1620.375,1013.875,641.25,14.5,2460.375,1550.25,2156.25,0.1400000000000005,0.759999999999998
16.6,809.375,51.625,0.75,1624.75,1020.125,644.625,14.75,2464.625,1558.375,2160.75,0.1099999999999994,0.7700000000000031
16.7,825.875,53.0,0.875,1628.75,1025.875,647.75,15.0,2468.625,1566.0,2164.875,0.1099999999999994,0.8299999999999983
16.8,842.25,54.5,0.875,1632.5,1031.25,650.75,15.0,2472.25,1573.25,2168.75,0.1400000000000005,0.7999999999999972
16.9,858.375,55.875,1.0,1636.0,1036.25,653.5,15.375,2475.625,1580.25,2172.375,0.1400000000000005,0.8599999999999994
17.0,874.125,57.125,1.0,1639.375,1040.875,656.0,15.5,2478.75,1586.75,2175.75,0.1299999999999954,0.8599999999999994
17.1,889.75,58.625,1.0,1642.375,1045.0,658.375,15.625,2481.75,1592.875,2179.0,0.1499999999999985,0.9099999999999966
17.2,905.0,60.125,1.125,1645.125,1048.875,660.5,15.75,2484.375,1598.875,2182.125,0.1400000000000005,0.9399999999999976
17.3,919.75,61.375,1.125,1647.75,1052.5,662.375,16.0,2487.0,1604.375,2184.875,0.1499999999999985,1.0
17.4,934.5,62.875,1.125,1650.25,1055.75,664.25,16.125,2489.25,1609.875,2187.5,0.1499999999999985,1.009999999999998
17.5,948.875,64.375,1.25,1652.5,1058.75,665.75,16.25,2491.375,1614.875,2190.0,0.1499999999999985,0.9799999999999968
17.6,962.75,65.75,1.25,1654.625,1061.5,667.25,16.5,2493.25,1619.625,2192.5,0.1499999999999985,1.0200000000000031
17.7,976.625,67.25,1.375,1656.375,1064.0,668.5,16.75,2495.125,1624.25,2194.625,0.1299999999999954,1.0799999999999983
17.8,990.0,68.75,1.5,1658.25,1066.25,669.75,16.75,2496.875,1628.5,2196.75,0.1499999999999985,1.0799999999999983
17.9,1003.0,70.25,1.5,1659.75,1068.375,670.625,17.0,2498.375,1632.625,2198.625,0.1400000000000005,1.1000000000000014
18.0,1015.875,71.625,1.5,1661.25,1070.125,671.625,17.125,2499.875,1636.5,2200.5,0.1400000000000005,1.0900000000000034
18.1,1028.5,73.125,1.625,1662.625,1071.625,672.375,17.25,2501.125,1640.125,2202.25,0.1099999999999994,1.1700000000000017
18.2,1040.625,74.625,1.625,1663.75,1073.0,673.0,17.25,2502.375,1643.75,2203.75,0.1400000000000005,1.1300000000000026
18.3,1052.5,76.0,1.625,1664.875,1074.125,673.5,17.5,2503.5,1647.0,2205.25,0.1400000000000005,1.2000000000000028
18.4,1064.125,77.5,1.75,1665.875,1075.125,673.875,17.75,2504.625,1650.125,2206.625,0.1099999999999994,1.1799999999999995
18.5,1075.375,78.875,1.75,1666.625,1075.75,674.25,17.75,2505.5,1653.125,2207.875,0.1299999999999954,1.25
18.6,1086.375,80.375,1.75,1667.375,1076.375,674.375,17.875,2506.375,1656.0,2209.0,0.1400000000000005,1.2100000000000009
18.7,1097.125,81.875,1.875,1668.125,1076.875,674.5,18.0,2507.125,1658.75,2210.25,0.1400000000000005,1.25
18.8,1107.5,83.25,1.875,1668.625,1077.0,674.5,18.0,2507.875,1661.25,2211.125,0.1400000000000005,1.2800000000000011
18.9,1117.625,84.75,2.0,1669.125,1077.125,674.375,18.25,2508.5,1663.625,2212.125,0.1400000000000005,1.2800000000000011
19.0,1127.5,86.25,2.0,1669.5,1077.0,674.125,18.375,2509.125,1666.0,2213.0,0.1499999999999985,1.2700000000000031
19.1,1137.0,87.625,2.125,1669.75,1076.75,674.0,18.5,2509.625,1668.125,2213.75,0.1299999999999954,1.3200000000000005
19.2,1146.25,89.125,2.125,1670.0,1076.375,673.625,18.625,2510.0,1670.25,2214.375,0.1299999999999954,1.2899999999999991
19.3,1155.25,90.5,2.25,1670.125,1075.875,673.25,18.75,2510.375,1672.125,2215.125,0.1499999999999985,1.3500000000000014
19.4,1164.125,92.0,2.25,1670.25,1075.25,672.75,18.875,2510.75,1674.0,2215.75,0.1400000000000005,1.3500000000000014
19.5,1172.625,93.5,2.375,1670.25,1074.625,672.25,18.875,2511.0,1675.75,2216.25,0.1299999999999954,1.3200000000000005
19.6,1180.75,95.0,2.375,1670.25,1073.75,671.625,19.125,2511.25,1677.375,2216.625,0.1699999999999946,1.3400000000000034
19.7,1188.75,96.375,2.375,1670.125,1072.75,671.0,19.125,2511.375,1679.0,2217.0,0.1400000000000005,1.3800000000000026
19.8,1196.5,97.75,2.375,1669.875,1071.75,670.25,19.375,2511.625,1680.375,2217.375,0.1499999999999985,1.3999999999999986
19.9,1204.0,99.25,2.5,1669.625,1070.625,669.375,19.5,2511.75,1681.875,2217.625,0.1099999999999994,1.4299999999999995
20.0,1211.25,100.75,2.5,1669.25,1069.25,668.5,19.625,2511.75,1683.125,2217.875,0.1400000000000005,1.4299999999999995
20.1,1218.25,102.125,2.625,1669.0,1067.875,667.5,19.75,2511.875,1684.375,2218.125,0.1400000000000005,1.4299999999999995
20.2,1225.125,103.5,2.75,1668.5,1066.5,666.5,19.75,2511.75,1685.5,2218.25,0.1499999999999985,1.4299999999999995
20.3,1231.625,104.875,2.75,1668.0,1064.875,665.5,19.75,2511.75,1686.5,2218.25,0.1400000000000005,1.4299999999999995
20.4,1238.0,106.375,2.75,1667.5,1063.25,664.5,20.0,2511.625,1687.5,2218.25,0.1299999999999954,1.4299999999999995
20.5,1244.125,107.875,2.875,1667.0,1061.625,663.375,20.125,2511.5,1688.375,2218.25,0.1400000000000005,1.4399999999999975
20.6,1250.0,109.125,2.875,1666.375,1059.875,662.25,20.125,2511.375,1689.25,2218.25,0.1299999999999954,1.4699999999999989
20.7,1255.75,110.625,2.875,1665.625,1058.125,661.0,20.25,2511.25,1690.0,2218.125,0.1400000000000005,1.4699999999999989
20.8,1261.375,111.875,2.875,1665.0,1056.25,659.75,20.25,2511.0,1690.75,2218.0,0.1299999999999954,1.4299999999999995
20.9,1266.75,113.375,3.0,1664.125,1054.375,658.625,20.25,2510.75,1691.375,2217.875,0.1499999999999985,1.4600000000000009
21.0,1271.875,114.75,3.0,1663.5,1052.25,657.375,20.375,2510.5,1692.0,2217.625,0.1400000000000005,1.4399999999999975
21.1,1276.75,116.125,3.125,1662.625,1050.25,656.0,20.625,2510.25,1692.625,2217.5,0.1099999999999994,1.4799999999999969
21.2,1281.5,117.375,3.125,1661.75,1048.125,654.625,20.625,2510.0,1693.0,2217.25,0.1499999999999985,1.4600000000000009
21.3,1286.25,118.875,3.25,1660.875,1046.0,653.25,20.625,2509.625,1693.5,2217.0,0.1400000000000005,1.4699999999999989
21.4,1290.625,120.125,3.25,1659.875,1043.75,651.875,20.875,2509.25,1694.0,2216.625,0.1299999999999954,1.4799999999999969
21.5,1294.875,121.5,3.25,1658.875,1041.375,650.375,20.875,2508.875,1694.25,2216.25,0.1299999999999954,1.5200000000000031
21.6,1299.0,122.875,3.375,1658.0,1039.0,648.875,20.875,2508.375,1694.625,2215.875,0.1499999999999985,1.5
21.7,1302.875,124.125,3.375,1656.875,1036.625,647.375,21.125,2508.0,1695.0,2215.5,0.1499999999999985,1.5300000000000011
21.8,1306.75,125.5,3.375,1655.875,1034.125,645.75,21.125,2507.625,1695.125,2215.125,0.1400000000000005,1.5
21.9,1310.375,126.875,3.5,1654.75,1031.5,644.125,21.25,2507.125,1695.375,2214.625,0.1299999999999954,1.4299999999999995
22.0,1313.875,128.125,3.5,1653.625,1029.0,642.625,21.375,2506.625,1695.5,2214.125,0.1400000000000005,1.509999999999998
22.1,1317.25,129.5,3.5,1652.5,1026.375,640.875,21.375,2506.125,1695.625,2213.625,0.1400000000000005,1.5
22.2,1320.5,130.875,3.625,1651.25,1023.75,639.375,21.5,2505.625,1695.75,2213.125,0.1299999999999954,1.5499999999999972
22.3,1323.5,132.0,3.625,1650.0,1021.0,637.625,21.5,2505.125,1695.75,2212.5,0.1499999999999985,1.5300000000000011
22.4,1326.5,133.375,3.75,1648.75,1018.25,635.875,21.75,2504.5,1695.75,2212.0,0.1099999999999994,1.5200000000000031
22.5,1329.25,134.75,3.75,1647.625,1015.5,634.25,21.75,2504.0,1695.875,2211.25,0.1499999999999985,1.5700000000000005
22.6,1332.0,136.0,3.875,1646.25,1012.75,632.375,21.875,2503.5,1695.75,2210.75,0.1499999999999985,1.5
22.7,1334.625,137.125,3.875,1644.875,1010.0,630.75,21.75,2502.875,1695.625,2210.0,0.1400000000000005,1.5
22.8,1337.0,138.375,3.875,1643.5,1007.125,628.875,21.875,2502.25,1695.5,2209.25,0.1499999999999985,1.490000000000002
22.9,1339.375,139.625,4.0,1642.125,1004.25,627.125,22.0,2501.625,1695.375,2208.625,0.1299999999999954,1.5
23.0,1341.625,140.875,4.0,1640.625,1001.375,625.25,22.0,2500.875,1695.125,2207.875,0.1499999999999985,1.490000000000002
23.1,1343.75,142.125,4.0,1639.25,998.375,623.5,22.0,2500.25,1695.0,2207.125,0.1299999999999954,1.5
23.2,1345.875,143.375,4.125,1637.75,995.375,621.625,22.25,2499.5,1694.75,2206.375,0.1299999999999954,1.4699999999999989
23.3,1347.75,144.5,4.125,1636.25,992.375,619.75,22.125,2498.875,1694.5,2205.5,0.1699999999999946,1.4500000000000028
23.4,1349.625,145.75,4.125,1634.75,989.25,617.875,22.125,2498.125,1694.25,2204.75,0.1499999999999985,1.509999999999998
23.5,1351.375,146.875,4.25,1633.25,986.125,616.0,22.25,2497.5,1693.875,2203.875,0.1400000000000005,1.5200000000000031
23.6,1353.0,148.125,4.25,1631.75,982.875,614.125,22.375,2496.75,1693.625,2203.0,0.1400000000000005,1.4399999999999975
23.7,1354.5,149.375,4.25,1630.125,979.625,612.125,22.5,2496.125,1693.25,2202.125,0.1499999999999985,1.490000000000002
23.8,1356.0,150.375,4.25,1628.5,976.375,610.25,22.5,2495.25,1692.875,2201.25,0.1499999999999985,1.5
23.9,1357.375,151.5,4.375,1626.875,973.125,608.25,22.5,2494.5,1692.5,2200.375,0.1400000000000005,1.490000000000002
24.0,1358.75,152.75,4.375,1625.25,969.875,606.375,22.5,2493.75,1692.125,2199.375,0.1400000000000005,1.4299999999999995
24.1,1359.875,153.875,4.375,1623.5,966.5,604.25,22.375,2493.0,1691.625,2198.375,0.1400000000000005,1.490000000000002
24.2,1361.125,155.0,4.375,1621.875,963.25,602.25,22.375,2492.25,1691.25,2197.25,0.1699999999999946,1.4799999999999969
24.3,1362.125,156.125,4.5,1620.125,959.875,600.25,22.75,2491.375,1690.75,2196.375,0.1499999999999985,1.4600000000000009
24.4,1363.125,157.25,4.5,1618.375,956.625,598.25,22.75,2490.5,1690.25,2195.25,0.1400000000000005,1.4299999999999995
24.5,1364.0,158.25,4.625,1616.625,953.25,596.125,22.75,2489.75,1689.625,2194.25,0.1400000000000005,1.4399999999999975
24.6,1364.875,159.375,4.625,1614.875,949.875,594.125,22.625,2488.875,1689.125,2193.125,0.1400000000000005,1.4600000000000009
24.7,1365.75,160.375,4.625,1613.125,946.625,592.125,22.75,2488.0,1688.5,2192.0,0.1499999999999985,1.4399999999999975
24.8,1366.375,161.5,4.625,1611.25,943.125,590.0,22.625,2487.125,1687.875,2190.875,0.1699999999999946,1.4600000000000009
24.9,1367.125,162.5,4.625,1609.5,939.75,587.875,22.875,2486.25,1687.25,2189.875,0.1699999999999946,1.4799999999999969
25.0,1367.75,163.625,4.625,1607.625,936.375,585.875,22.75,2485.375,1686.75,2188.625,0.1400000000000005,1.4399999999999975
25.1,1368.25,164.625,4.75,1605.75,932.875,583.75,22.75,2484.5,1686.125,2187.375,0.1400000000000005,1.4200000000000017
25.2,1368.75,165.625,4.75,1603.875,929.5,581.875,23.0,2483.625,1685.375,2186.25,0.1299999999999954,1.3800000000000026
25.3,1369.125,166.625,4.75,1602.0,926.0,579.75,23.125,2482.625,1684.75,2185.0,0.1699999999999946,1.4500000000000028
25.4,1369.5,167.625,4.75,1600.125,922.5,577.75,23.0,2481.75,1684.0,2183.75,0.1400000000000005,1.3900000000000006
25.5,1369.75,168.5,4.875,1598.25,919.0,575.75,23.125,2480.75,1683.25,2182.5,0.1499999999999985,1.3699999999999974
25.6,1370.0,169.625,4.875,1596.25,915.625,573.625,23.125,2479.875,1682.625,2181.375,0.1299999999999954,1.3999999999999986
25.7,1370.25,170.625,4.875,1594.375,912.0,571.625,23.125,2478.875,1681.875,2180.125,0.1299999999999954,1.3800000000000026
25.8,1370.5,171.5,4.875,1592.375,908.5,569.625,23.0,2477.875,1681.125,2178.875,0.1400000000000005,1.4200000000000017
25.9,1370.5,172.5,4.875,1590.375,905.0,567.5,23.125,2476.875,1680.375,2177.75,0.1499999999999985,1.3900000000000006
26.0,1370.625,173.375,4.875,1588.5,901.5,565.375,23.25,2475.875,1679.625,2176.5,0.1400000000000005,1.3800000000000026
26.1,1370.625,174.25,5.0,1586.5,898.0,563.25,23.25,2474.875,1678.75,2175.25,0.1400000000000005,1.3999999999999986
26.2,1370.625,175.25,5.0,1584.375,894.375,561.25,23.375,2473.875,1678.0,2174.0,0.1699999999999946,1.4099999999999966
26.3,1370.5,176.125,5.0,1582.375,890.875,559.25,23.375,2472.875,1677.125,2172.75,0.1499999999999985,1.3800000000000026
26.4,1370.375,177.0,5.0,1580.375,887.375,557.125,23.25,2471.875,1676.375,2171.375,0.1499999999999985,1.3500000000000014
26.5,1370.25,177.875,5.0,1578.375,883.75,555.0,23.375,2470.875,1675.5,2170.125,0.1499999999999985,1.3400000000000034
26.6,1370.125,178.875,5.125,1576.25,880.25,552.875,23.25,2469.75,1674.625,2168.75,0.1400000000000005,1.3999999999999986
26.7,1369.875,179.625,5.125,1574.25,876.625,550.75,23.25,2468.75,1673.75,2167.375,0.1299999999999954,1.3900000000000006
26.8,1369.625,180.5,5.125,1572.125,873.125,548.625,23.375,2467.625,1672.875,2166.0,0.1400000000000005,1.3599999999999994
26.9,1369.25,181.25,5.125,1570.0,869.625,546.625,23.375,2466.5,1672.0,2164.625,0.1299999999999954,1.3500000000000014
27.0,1369.0,182.125,5.125,1567.875,866.0,544.5,23.5,2465.5,1671.0,2163.125,0.1699999999999946,1.3299999999999983
27.1,1368.625,183.0,5.25,1565.75,862.375,542.375,23.5,2464.375,1670.125,2161.625,0.1400000000000005,1.3299999999999983
