time(s),F1,F2,F3,F4,F5,F6,F7,F8,F9,F10,Temp,Humid
0.0,0.0,0.0,0.0,0.0,0.0,0.0,0.0,0.0,0.0,0.0,0.0,0.0
0.1,0.25,-0.125,0.125,0.625,0.125,0.0,0.0,0.625,0.5,0.75,-0.00999999999999801,0.020000000000003126
0.2,0.25,0.0,0.125,1.375,0.25,0.125,0.0,1.375,0.875,1.375,0.030000000000001137,0.00999999999999801
0.3,0.5,0.0,0.125,2.0,0.375,0.125,0.0,2.125,1.25,2.0,-0.00999999999999801,0.020000000000003126
0.4,0.5,0.0,0.125,2.625,0.5,0.125,0.125,2.75,1.75,2.75,0.00999999999999801,0.00999999999999801
0.5,0.625,0.0,0.125,3.25,0.625,0.125,0.0,3.375,2.125,3.375,-0.00999999999999801,0.030000000000001137
0.6,0.75,0.0,0.125,4.0,0.75,0.125,0.125,4.0,2.5,4.0,0.0,0.04999999999999716
0.7,0.875,0.0,0.125,4.625,0.875,0.125,0.0,4.75,2.875,4.5,0.00999999999999801,0.11999999999999744
0.8,1.0,0.0,0.125,5.25,0.875,0.125,0.25,5.375,3.25,5.125,0.00999999999999801,0.04999999999999716
0.9,1.125,0.0,0.125,6.0,1.0,0.0,0.0,6.0,3.625,5.625,0.00999999999999801,0.07000000000000028
1.0,1.25,0.0,0.25,6.625,1.0,0.125,0.0,6.625,4.0,6.25,0.00999999999999801,0.07000000000000028
1.1,1.375,0.0,0.125,7.25,1.125,0.0,0.0,7.125,4.375,6.875,0.00999999999999801,0.0799999999999983
1.2,1.5,0.0,0.125,7.875,1.125,0.0,0.25,7.75,4.625,7.375,0.00999999999999801,0.07000000000000028
1.3,1.625,0.0,0.25,8.375,1.25,0.0,0.125,8.375,5.0,7.875,0.0,0.0
1.4,1.75,0.0,0.25,9.125,1.25,0.0,0.125,8.875,5.25,8.25,0.00999999999999801,0.04999999999999716
1.5,1.875,0.0,0.25,9.625,1.25,-0.125,0.0,9.5,5.5,8.75,0.00999999999999801,0.04999999999999716
1.6,2.0,0.125,0.25,10.25,1.25,-0.125,0.0,10.0,5.875,9.125,0.03999999999999915,0.07000000000000028
1.7,2.0,0.125,0.25,10.75,1.25,-0.25,-0.125,10.5,6.125,9.625,0.030000000000001137,0.10000000000000142
1.8,2.125,0.125,0.25,11.375,1.25,-0.25,0.125,11.0,6.375,10.0,0.0,0.0799999999999983
1.9,2.25,0.125,0.25,12.0,1.375,-0.375,0.125,11.5,6.625,10.375,0.00999999999999801,0.0899999999999963
2.0,2.375,0.125,0.25,12.5,1.25,-0.5,0.0,12.0,6.875,10.75,-0.00999999999999801,0.03999999999999915
2.1,2.5,0.25,0.25,13.125,1.25,-0.625,0.0,12.5,7.125,11.125,0.030000000000001137,0.10000000000000142
2.2,2.625,0.25,0.25,13.625,1.25,-0.625,0.125,13.0,7.375,11.5,0.00999999999999801,0.04999999999999716
2.3,2.625,0.25,0.25,14.125,1.25,-0.75,0.125,13.5,7.5,11.875,0.030000000000001137,0.14000000000000057
2.4,2.75,0.25,0.25,14.625,1.125,-0.875,0.125,13.875,7.875,12.125,0.03999999999999915,0.07000000000000028
2.5,2.875,0.25,0.25,15.25,1.25,-0.875,0.0,14.375,8.125,12.5,0.00999999999999801,0.07000000000000028
2.6,3.0,0.25,0.25,15.625,1.125,-1.0,0.0,14.75,8.25,12.75,0.060000000000002274,0.07000000000000028
2.7,3.125,0.25,0.25,16.25,1.125,-1.125,0.125,15.25,8.5,13.125,0.00999999999999801,0.0899999999999963
2.8,3.25,0.25,0.25,16.625,1.0,-1.25,0.125,15.625,8.625,13.375,0.00999999999999801,0.0799999999999983
2.9,3.25,0.375,0.25,17.125,1.0,-1.25,0.125,16.0,8.875,13.625,0.00999999999999801,0.0799999999999983
3.0,3.375,0.375,0.25,17.625,0.875,-1.375,0.125,16.375,9.125,13.875,0.00999999999999801,0.020000000000003126
3.1,3.5,0.5,0.25,18.125,0.875,-1.5,0.125,16.875,9.25,14.125,0.030000000000001137,0.00999999999999801
3.2,3.625,0.375,0.25,18.625,0.75,-1.5,0.125,17.125,9.375,14.375,0.030000000000001137,0.07000000000000028
3.3,3.75,0.5,0.25,19.0,0.75,-1.625,0.25,17.5,9.625,14.5,0.030000000000001137,0.00999999999999801
3.4,3.875,0.5,0.25,19.5,0.75,-1.75,0.25,17.875,9.75,14.75,0.00999999999999801,0.00999999999999801
3.5,3.875,0.5,0.25,19.875,0.625,-1.875,0.0,18.25,10.0,14.875,0.00999999999999801,0.020000000000003126
3.6,4.0,0.5,0.25,20.375,0.5,-1.875,0.125,18.5,10.125,15.125,0.0,0.0
3.7,4.125,0.5,0.375,20.75,0.375,-2.0,0.125,18.875,10.25,15.375,0.03999999999999915,0.00999999999999801
3.8,4.25,0.625,0.375,21.125,0.375,-2.25,0.125,19.125,10.375,15.5,0.030000000000001137,-0.020000000000003126
3.9,4.25,0.625,0.25,21.5,0.25,-2.375,0.125,19.375,10.5,15.625,0.00999999999999801,-0.060000000000002274
4.0,4.375,0.625,0.25,21.875,0.125,-2.5,0.0,19.75,10.625,15.75,0.00999999999999801,-0.07000000000000028
4.1,4.5,0.625,0.375,22.25,0.0,-2.625,0.0,20.0,10.75,15.875,0.030000000000001137,0.00999999999999801
4.2,4.5,0.625,0.375,22.625,0.0,-2.625,0.125,20.25,10.875,16.125,0.030000000000001137,-0.03999999999999915
4.3,4.625,0.625,0.375,22.875,-0.25,-2.875,0.0,20.625,11.125,16.25,0.00999999999999801,-0.03999999999999915
4.4,4.75,0.75,0.25,23.25,-0.25,-2.875,0.0,20.875,11.125,16.375,0.030000000000001137,-0.04999999999999716
4.5,4.75,0.75,0.375,23.625,-0.5,-3.125,-0.125,21.125,11.25,16.375,0.030000000000001137,-0.10999999999999943
4.6,4.875,0.75,0.25,23.875,-0.5,-3.25,-0.125,21.375,11.25,16.5,0.03999999999999915,-0.030000000000001137
4.7,4.875,0.75,0.375,24.125,-0.625,-3.25,0.0,21.5,11.375,16.625,0.030000000000001137,-0.07000000000000028
4.8,5.0,0.875,0.375,24.375,-0.75,-3.375,0.125,21.75,11.5,16.75,0.03999999999999915,-0.10999999999999943
4.9,5.125,0.75,0.375,24.75,-0.875,-3.625,0.25,22.0,11.625,16.875,0.03999999999999915,-0.10999999999999943
5.0,5.125,0.875,0.375,25.0,-0.875,-3.625,0.125,22.125,11.75,16.875,0.03999999999999915,-0.11999999999999744
5.1,5.25,0.875,0.375,25.25,-1.125,-3.875,0.125,22.375,11.75,16.875,0.030000000000001137,-0.10999999999999943
5.2,5.25,0.875,0.375,25.5,-1.25,-3.875,0.0,22.5,11.875,17.0,0.030000000000001137,-0.13000000000000256
5.3,5.375,1.0,0.375,25.75,-1.375,-4.0,0.0,22.75,11.875,16.875,0.030000000000001137,-0.10999999999999943
5.4,5.5,1.0,0.375,26.0,-1.5,-4.25,0.125,22.875,12.0,17.125,0.030000000000001137,-0.14000000000000057
5.5,5.5,1.125,0.375,26.25,-1.625,-4.25,0.0,23.125,12.125,17.0,0.030000000000001137,-0.20000000000000284
5.6,5.625,1.0,0.375,26.5,-1.75,-4.375,0.0,23.25,12.125,17.0,0.03999999999999915,-0.17999999999999972
5.7,5.75,1.125,0.25,26.75,-1.75,-4.5,0.0,23.375,12.125,17.125,0.03999999999999915,-0.20000000000000284
5.8,5.75,1.125,0.375,26.875,-2.0,-4.625,0.125,23.5,12.25,17.125,0.03999999999999915,-0.17999999999999972
5.9,5.875,1.125,0.375,27.125,-2.125,-4.75,0.125,23.625,12.25,17.125,0.00999999999999801,-0.22999999999999687
6.0,5.875,1.125,0.375,27.25,-2.125,-4.875,0.125,23.75,12.25,17.0,0.03999999999999915,-0.21000000000000085
6.1,6.0,1.125,0.375,27.375,-2.375,-5.0,0.125,23.875,12.375,17.0,0.03999999999999915,-0.21000000000000085
6.2,6.0,1.25,0.375,27.5,-2.5,-5.125,-0.125,24.0,12.375,17.0,0.03999999999999915,-0.240000000000002
6.3,6.125,1.25,0.375,27.75,-2.5,-5.25,0.125,24.125,12.375,16.875,0.00999999999999801,-0.18999999999999773
6.4,6.125,1.25,0.375,27.875,-2.75,-5.375,0.0,24.125,12.375,16.875,0.030000000000001137,-0.22999999999999687
6.5,6.25,1.25,0.375,28.0,-2.875,-5.5,0.0,24.25,12.375,16.875,0.030000000000001137,-0.22999999999999687
6.6,6.25,1.375,0.375,28.125,-3.0,-5.5,0.125,24.375,12.375,16.75,0.00999999999999801,-0.259999999999998
6.7,6.375,1.375,0.375,28.25,-3.0,-5.75,0.25,24.375,12.375,16.75,0.030000000000001137,-0.28000000000000114
6.8,6.375,1.375,0.375,28.375,-3.25,-5.75,0.0,24.5,12.5,16.625,0.03999999999999915,-0.2700000000000031
6.9,6.375,1.375,0.375,28.5,-3.375,-5.875,0.0,24.625,12.5,16.625,0.030000000000001137,-0.35999999999999943
7.0,6.5,1.5,0.375,28.625,-3.375,-6.0,0.0,24.625,12.5,16.5,0.03999999999999915,-0.28999999999999915
7.1,6.5,1.5,0.375,28.625,-3.625,-6.125,0.125,24.625,12.5,16.5,0.030000000000001137,-0.3299999999999983
7.2,6.5,1.5,0.375,28.75,-3.75,-6.25,0.0,24.75,12.5,16.375,0.030000000000001137,-0.39000000000000057
7.3,6.625,1.5,0.375,28.875,-3.875,-6.375,0.125,24.75,12.5,16.25,0.060000000000002274,-0.3400000000000034
7.4,6.625,1.5,0.375,28.875,-4.0,-6.5,0.125,24.875,12.5,16.25,0.030000000000001137,-0.29999999999999716
7.5,6.75,1.625,0.375,29.0,-4.125,-6.625,0.125,24.875,12.5,16.125,0.030000000000001137,-0.35999999999999943
7.6,6.75,1.625,0.375,29.0,-4.25,-6.625,0.0,24.875,12.5,16.0,0.030000000000001137,-0.35999999999999943
7.7,6.875,1.625,0.375,29.0,-4.375,-6.75,-0.125,25.0,12.375,15.875,0.030000000000001137,-0.39000000000000057
7.8,6.875,1.625,0.375,29.125,-4.5,-6.875,0.0,25.0,12.375,15.75,0.030000000000001137,-0.4100000000000037
7.9,6.875,1.75,0.375,29.125,-4.625,-7.0,0.0,25.0,12.375,15.625,0.060000000000002274,-0.4299999999999997
8.0,7.0,1.625,0.375,29.25,-4.625,-7.0,-0.125,25.0,12.375,15.5,0.030000000000001137,-0.4100000000000037
8.1,7.0,1.75,0.375,29.25,-4.875,-7.125,0.0,25.0,12.25,15.375,0.03999999999999915,-0.4399999999999977
8.2,7.0,1.75,0.375,29.25,-5.0,-7.25,0.125,25.0,12.25,15.25,0.03999999999999915,-0.4399999999999977
8.3,7.125,1.875,0.375,29.25,-5.125,-7.375,0.125,25.0,12.25,15.125,0.03999999999999915,-0.5200000000000031
8.4,7.125,1.875,0.375,29.25,-5.25,-7.375,0.0,25.0,12.25,15.0,0.03999999999999915,-0.4200000000000017
8.5,7.125,1.75,0.375,29.25,-5.375,-7.5,0.0,25.0,12.125,14.75,0.03999999999999915,-0.4200000000000017
8.6,7.125,1.875,0.375,29.25,-5.5,-7.5,0.0,25.0,12.125,14.625,0.030000000000001137,-0.46000000000000085
8.7,7.25,1.875,0.375,29.25,-5.5,-7.75,0.0,25.0,12.0,14.5,0.030000000000001137,-0.4399999999999977
8.8,7.25,1.875,0.375,29.25,-5.75,-7.75,0.0,25.0,12.0,14.375,0.00999999999999801,-0.5
8.9,7.25,2.0,0.375,29.25,-5.875,-7.875,-0.125,25.0,12.0,14.25,0.030000000000001137,-0.509999999999998
9.0,7.25,2.0,0.375,29.25,-6.0,-8.0,-0.125,25.0,11.875,14.125,0.03999999999999915,-0.46000000000000085
9.1,7.375,2.0,0.375,29.125,-6.125,-8.0,-0.125,24.875,11.875,14.0,0.00999999999999801,-0.4799999999999969
9.2,7.375,2.0,0.375,29.25,-6.125,-8.125,0.0,24.875,11.75,13.75,0.03999999999999915,-0.46000000000000085
9.3,7.375,2.125,0.375,29.125,-6.25,-8.25,0.0,24.75,11.75,13.625,0.030000000000001137,-0.5399999999999991
9.4,7.5,2.125,0.375,29.125,-6.375,-8.25,0.0,24.75,11.625,13.5,0.03999999999999915,-0.5
9.5,7.5,2.125,0.375,29.0,-6.5,-8.375,0.0,24.75,11.625,13.25,0.03999999999999915,-0.5499999999999972
9.6,7.5,2.125,0.375,29.0,-6.625,-8.375,0.0,24.75,11.5,13.25,0.03999999999999915,-0.5499999999999972
9.7,7.625,2.125,0.375,29.0,-6.75,-8.5,0.25,24.625,11.5,13.0,0.00999999999999801,-0.6000000000000014
9.8,7.5,2.25,0.375,28.875,-6.875,-8.5,0.0,24.625,11.5,12.875,0.060000000000002274,-0.6000000000000014
9.9,7.625,2.25,0.375,28.875,-7.0,-8.625,-0.125,24.5,11.375,12.75,0.030000000000001137,-0.5900000000000034
10.0,7.625,2.25,0.375,28.75,-7.0,-8.875,0.0,24.5,11.625,12.5,0.030000000000001137,-0.5700000000000003
10.1,7.625,2.25,0.25,28.5,-7.125,-9.0,0.0,24.5,11.5,12.375,0.030000000000001137,-0.6000000000000014
10.2,7.625,2.125,0.25,28.375,-7.375,-9.125,0.0,24.375,11.625,12.25,0.00999999999999801,-0.6199999999999974
10.3,7.5,2.25,0.125,28.375,-7.5,-9.125,-0.125,24.375,11.625,12.125,0.060000000000002274,-0.6099999999999994
10.4,7.625,2.25,0.25,28.25,-7.5,-9.375,-0.125,24.25,11.5,12.125,0.00999999999999801,-0.6000000000000014
10.5,7.625,2.25,0.125,28.125,-7.625,-9.5,-0.125,24.125,11.625,12.125,0.030000000000001137,-0.6199999999999974
10.6,7.625,2.25,0.125,28.0,-7.75,-9.5,-0.125,24.0,11.625,12.5,0.03999999999999915,-0.5799999999999983
10.7,7.625,2.25,0.0,27.875,-7.875,-9.625,0.0,24.0,11.625,13.25,0.060000000000002274,-0.6600000000000037
10.8,7.75,2.375,0.0,27.875,-7.75,-9.5,-0.125,24.0,11.625,15.375,0.03999999999999915,-0.6400000000000006
10.9,8.0,2.375,0.0,28.0,-7.25,-9.375,0.0,24.0,11.75,19.5,0.03999999999999915,-0.6300000000000026
11.0,8.375,2.375,-0.125,28.375,-6.25,-8.875,0.125,24.125,12.0,26.5,0.060000000000002274,-0.6300000000000026
11.1,8.875,2.375,-0.125,29.125,-4.5,-7.75,0.125,24.75,12.875,37.25,0.060000000000002274,-0.6400000000000006
11.2,9.75,2.375,-0.125,30.75,-1.875,-6.125,0.25,26.125,14.875,52.25,0.03999999999999915,-0.6600000000000037
11.3,10.875,2.5,-0.125,33.875,1.625,-3.75,0.5,29.125,18.125,72.0,0.030000000000001137,-0.6600000000000037
11.4,12.625,2.375,-0.125,39.0,6.125,-0.25,0.5,34.375,23.875,97.375,0.03999999999999915,-0.6700000000000017
11.5,14.875,2.625,-0.25,46.875,11.5,4.25,0.625,42.375,32.75,129.0,0.03999999999999915,-0.6700000000000017
11.6,17.625,2.625,-0.25,58.0,17.875,10.0,0.75,53.625,45.5,168.125,0.030000000000001137,-0.6899999999999977
11.7,21.0,2.875,-0.125,73.0,25.5,16.875,1.125,69.0,62.625,217.875,0.060000000000002274,-0.7000000000000028
11.8,25.125,3.125,-0.25,92.125,34.0,24.875,1.5,89.125,84.5,277.5,0.00999999999999801,-0.6499999999999986
11.9,29.75,3.375,-0.25,115.75,43.375,33.875,1.375,114.375,110.75,345.25,0.030000000000001137,-0.6700000000000017
12.0,35.125,3.625,-0.25,144.125,53.75,43.875,1.75,146.125,141.625,422.625,0.030000000000001137,-0.6400000000000006
12.1,41.0,3.875,-0.25,177.5,65.125,54.75,2.0,184.875,176.75,508.625,0.030000000000001137,-0.6600000000000037
12.2,47.625,4.375,-0.25,215.0,77.375,66.0,2.625,230.375,215.0,600.625,0.07000000000000028,-0.6199999999999974
12.3,54.75,4.625,-0.25,257.375,90.875,78.0,2.75,284.125,256.625,698.5,0.03999999999999915,-0.6099999999999994
12.4,62.75,5.125,-0.25,304.0,105.5,90.75,3.0,345.625,300.25,798.75,0.060000000000002274,-0.6400000000000006
12.5,71.125,5.625,-0.25,353.5,121.125,103.75,3.25,414.0,345.125,897.125,0.030000000000001137,-0.6000000000000014
12.6,80.25,6.125,-0.25,406.625,137.75,117.25,3.5,490.125,391.375,994.25,0.030000000000001137,-0.5700000000000003
12.7,89.875,6.75,-0.25,461.625,154.875,130.875,3.875,572.0,437.375,1086.25,0.030000000000001137,-0.5399999999999991
12.8,100.125,7.375,-0.25,519.25,173.0,145.125,4.125,660.625,484.0,1174.125,0.030000000000001137,-0.5300000000000011
12.9,111.0,8.0,-0.25,578.0,191.75,159.5,4.5,754.125,530.375,1255.875,0.030000000000001137,-0.5499999999999972
13.0,122.25,8.625,-0.25,636.75,210.875,173.875,4.75,850.375,576.125,1330.625,0.03999999999999915,-0.509999999999998
13.1,134.25,9.25,-0.25,696.0,230.625,188.625,5.0,950.25,621.75,1399.875,0.030000000000001137,-0.5
13.2,146.625,9.875,-0.25,754.5,250.875,203.5,5.5,1051.375,666.875,1463.375,0.03999999999999915,-0.4799999999999969
13.3,159.25,10.625,-0.25,811.125,271.125,218.25,5.75,1151.25,710.75,1521.125,0.030000000000001137,-0.45000000000000284
13.4,172.625,11.5,-0.125,866.625,292.0,233.0,6.0,1250.625,754.25,1574.5,0.03999999999999915,-0.4399999999999977
13.5,186.375,12.125,-0.125,920.125,313.125,247.625,6.25,1347.0,796.5,1623.375,0.030000000000001137,-0.4100000000000037
13.6,200.375,13.0,-0.125,970.625,334.125,262.125,6.625,1438.625,837.0,1667.625,0.0799999999999983,-0.3999999999999986
13.7,214.875,13.75,-0.125,1019.0,355.375,276.5,6.875,1526.375,876.5,1708.125,0.060000000000002274,-0.3299999999999983
13.8,229.75,14.625,-0.125,1064.625,376.625,290.5,7.125,1609.0,914.5,1745.125,0.03999999999999915,-0.3500000000000014
13.9,244.75,15.375,-0.125,1107.0,397.625,304.125,7.25,1685.125,950.5,1778.75,0.03999999999999915,-0.3299999999999983
14.0,260.25,16.25,-0.125,1147.0,418.625,317.5,7.75,1756.375,985.5,1810.0,0.00999999999999801,-0.29999999999999716
14.1,276.125,17.125,-0.125,1184.375,439.5,330.5,7.875,1821.875,1018.875,1838.75,0.03999999999999915,-0.2700000000000031
14.2,292.0,18.0,-0.125,1218.875,459.75,343.125,8.0,1881.25,1050.625,1864.75,0.03999999999999915,-0.240000000000002
14.3,308.25,18.875,-0.125,1251.125,480.0,355.375,8.375,1935.875,1081.25,1889.125,0.0799999999999983,-0.2700000000000031
14.4,324.75,20.0,0.0,1281.125,499.75,367.25,8.5,1985.5,1110.5,1911.75,0.030000000000001137,-0.18999999999999773
14.5,341.25,20.875,0.0,1308.625,519.0,378.625,9.0,2030.25,1138.125,1932.625,0.03999999999999915,-0.14000000000000057
14.6,358.125,21.75,0.0,1334.375,537.875,389.75,8.875,2071.25,1164.625,1952.125,0.030000000000001137,-0.10000000000000142
14.7,375.125,22.875,0.0,1358.125,556.25,400.5,9.25,2108.375,1190.0,1970.0,0.07000000000000028,-0.14000000000000057
14.8,392.0,23.75,0.0,1380.0,574.0,410.625,9.5,2141.5,1213.875,1986.375,0.03999999999999915,-0.0799999999999983
14.9,409.25,24.75,0.125,1400.375,591.375,420.375,9.625,2172.0,1236.75,2001.875,0.030000000000001137,-0.10000000000000142
15.0,426.5,25.75,0.125,1419.375,608.125,429.75,10.0,2199.625,1258.5,2016.125,0.030000000000001137,-0.00999999999999801
15.1,443.625,26.875,0.125,1436.75,624.125,438.5,10.0,2224.5,1279.0,2029.375,0.03999999999999915,-0.020000000000003126
15.2,460.875,27.875,0.125,1453.0,639.75,447.125,10.125,2247.375,1298.75,2041.75,0.060000000000002274,-0.020000000000003126
15.3,478.25,28.875,0.125,1468.0,654.75,455.125,10.625,2268.25,1317.375,2053.5,0.03999999999999915,0.03999999999999915
15.4,495.375,30.0,0.25,1481.875,669.0,462.75,10.75,2287.0,1335.0,2064.375,0.03999999999999915,0.03999999999999915
15.5,512.75,31.125,0.25,1494.875,682.625,470.0,10.875,2304.5,1351.875,2074.5,0.03999999999999915,0.07000000000000028
15.6,530.0,32.25,0.25,1506.875,695.75,477.0,10.875,2320.375,1367.875,2083.875,0.060000000000002274,0.07000000000000028
15.7,547.0,33.125,0.25,1518.0,708.25,483.375,11.125,2334.875,1382.875,2092.625,0.03999999999999915,0.14999999999999858
15.8,564.0,34.375,0.25,1528.5,720.125,489.5,11.125,2348.25,1397.25,2100.875,0.03999999999999915,0.13000000000000256
15.9,580.875,35.5,0.375,1538.125,731.375,495.25,11.375,2360.5,1410.75,2108.5,0.03999999999999915,0.14000000000000057
16.0,597.875,36.5,0.375,1547.125,742.125,500.75,11.75,2371.75,1423.75,2115.75,0.03999999999999915,0.1700000000000017
16.1,614.625,37.75,0.5,1555.625,752.25,505.875,11.75,2382.25,1436.125,2122.375,0.030000000000001137,0.21000000000000085
16.2,631.0,38.875,0.5,1563.375,761.875,510.625,12.0,2391.75,1447.625,2128.75,0.03999999999999915,0.21000000000000085
16.3,647.5,40.0,0.5,1570.625,770.875,515.125,12.125,2400.5,1458.75,2134.625,0.07000000000000028,0.20000000000000284
16.4,663.875,41.125,0.5,1577.375,779.5,519.375,12.125,2408.625,1469.25,2140.125,0.03999999999999915,0.22999999999999687
16.5,679.875,42.25,0.625,1583.75,787.5,523.25,12.375,2416.0,1479.125,2145.25,0.030000000000001137,0.22999999999999687
16.6,695.75,43.5,0.625,1589.625,795.0,527.0,12.5,2422.875,1488.625,2150.125,0.03999999999999915,0.29999999999999716
16.7,711.625,44.625,0.625,1595.0,802.125,530.25,12.625,2429.25,1497.625,2154.75,0.060000000000002274,0.3100000000000023
16.8,727.0,45.875,0.75,1600.125,808.75,533.375,12.875,2435.125,1506.0,2158.75,0.03999999999999915,0.3500000000000014
16.9,742.375,47.0,0.75,1604.75,814.875,536.25,12.875,2440.625,1514.125,2162.75,0.030000000000001137,0.35999999999999943
17.0,757.5,48.125,0.75,1609.125,820.625,539.0,13.125,2445.5,1521.875,2166.5,0.030000000000001137,0.3299999999999983
17.1,772.25,49.25,0.875,1613.125,826.0,541.375,13.375,2450.0,1529.0,2169.75,0.060000000000002274,0.3999999999999986
17.2,787.0,50.375,0.875,1616.875,831.0,543.5,13.5,2454.25,1536.0,2173.0,0.060000000000002274,0.38000000000000256
17.3,801.375,51.625,0.875,1620.375,835.5,545.625,13.75,2458.125,1542.5,2175.875,0.03999999999999915,0.4099999999999966
17.4,815.5,52.75,1.0,1623.5,839.625,547.375,13.625,2461.75,1548.75,2178.625,0.03999999999999915,0.4099999999999966
17.5,829.375,54.0,1.0,1626.375,843.5,549.0,13.875,2465.0,1554.625,2181.125,0.060000000000002274,0.4099999999999966
17.6,843.125,55.125,1.0,1629.125,847.0,550.375,13.875,2468.0,1560.25,2183.5,0.060000000000002274,0.4099999999999966
17.7,856.375,56.375,1.0,1631.5,850.0,551.625,14.0,2470.75,1565.5,2185.625,0.03999999999999915,0.46999999999999886
17.8,869.75,57.5,1.0,1633.75,852.75,552.75,14.0,2473.25,1570.5,2187.625,0.03999999999999915,0.38000000000000256
17.9,882.625,58.625,1.125,1635.75,855.25,553.625,14.25,2475.625,1575.25,2189.375,0.060000000000002274,0.4399999999999977
18.0,895.25,59.875,1.125,1637.625,857.5,554.375,14.125,2477.75,1579.75,2191.0,0.060000000000002274,0.4399999999999977
18.1,907.625,61.0,1.25,1639.125,859.375,555.0,14.375,2479.75,1584.125,2192.5,0.03999999999999915,0.45000000000000284
18.2,919.75,62.25,1.25,1640.625,861.0,555.375,14.5,2481.625,1588.125,2194.0,0.03999999999999915,0.4799999999999969
18.3,931.625,63.375,1.25,1641.875,862.375,555.75,14.625,2483.125,1592.0,2195.25,0.060000000000002274,0.509999999999998
18.4,943.25,64.625,1.375,1643.0,863.5,555.875,14.5,2484.625,1595.625,2196.375,0.060000000000002274,0.509999999999998
